stdev_period,stdevF0,stdev_mfcc_7,mean_slope_Mel,mean_harmony,first_mean_harmony,Jitter_loc_h_a,localShimmer_h_a,localdbShimmer_h_a,apq3Shimmer_h_a,aqpq5Shimmer_h_a,ddaShimmer_h_a,mean_slope_Mel_h_a,mean_harmony_h_a,first_mean_harmony_h_a,Jitter_rap_lhl_a,localdbShimmer_lhl_a,mean_mfcc_2_lhl_a,mean_mfcc_7_lhl_a,stdev_mfcc_2_lhl_a,stdev_onset_env_lhl_a,stdev_pitches_lhl_a,meanF0_n_a,mean_mfcc_2_n_a,mean_mfcc_8_n_a,lpc1_n_a,mean_slope_Mel_n_a,pitch_quantile_n_a,Spec_Power_2_n_a,mean_harmony_n_a,Jitter_loci_features,apq11Shimmeri_features,mean_magnitudesi_features,mean_chroma_4i_features,sd_chroma_4i_features,mean_slope_Hzi_features,mean_slope_Meli_features,mean_mfcc_6_h_i,mean_magnitudes_h_i,mean_slope_Hz_h_i,mean_mfcc_9_lhl_i,mean_magnitudes_lhl_i,mean_harmony_lhl_i,first_mean_harmony_lhl_i,mean_chroma_0_n_i,mean_slope_Mel_n_i,stdev_periodu_features,mean_mfcc_4u_features,mean_slope_Hzu_features,mean_slope_Melu_features,mean_slope_Mel_h_u,mean_mfcc_4_lhl_u,mean_onset_env_lhl_u,sd_mfcc_delta_5_lhl_u,sd_mfcc_delta_10_lhl_u,stdev_mfcc_10_lhl_u,stdev_period_n_u,mean_slope_Hz_n_u,mean_slope_Mel_n_u,hnrphrase_features,num_periodsphrase_features,mean_mfcc_2phrase_features,mean_mfcc_delta_3phrase_features,mean_mfcc_delta_4phrase_features,mean_fcc_delta_11phrase_features,stdev_mfcc_2phrase_features,stdev_onset_envphrase_features,max_rmsphrase_features,min_rmsphrase_features,sd_mfcc_delta_2phrase_features,sd_mfcc_delta_3phrase_features,sd_mfcc_delta_7phrase_features,high_indexphrase_features,Spec_Power_1phrase_features,Spec_Power_2phrase_features,Spec_Power_3phrase_features,CPPSphrase_features,mean_autocorrelationphrase_features,LSF_0,spectral_flux_stda_lhl,spectral_spread_meana_lhl,LSF_0a_lhl,spectral_spread_meani_n,shannon_entropy_slidingwindow_first_derivative_stdi_n,spectral_slope_meani_l,f2i_l,spectral_skewness_meani_h,spectral_kurtosis_meani_h,crest_factor_meanu_n,ppeu_l,spectral_slope_std_phrases,spectral_flux_mean_phrases,spectral_flux_std_phrases,spectral_flux_first_derivative_mean_phrases,spectral_entropy_first_derivative_std_phrases,spectral_spread_mean_phrases,spectral_skewness_first_derivative_std_phrases,spectral_kurtosis_first_derivative_std_phrases,spectral_flatness_std_phrases,spectral_rolloff_std_phrases,ppe_phrases,LPC_4_phrases,kurtosis_slidingwindow_first_derivative_mean_phrases,shannon_entropy_slidingwindow_first_derivative_mean_phrases
0.000144295,4.275808885,2.698521376,95.73165283,22.11940463,23.23478919,0.005552844,0.044599823,0.390877575,0.025016421,0.026292854,0.075049264,41.24365388,22.91998526,23.18912026,0.002886635,0.430668638,-36.06064606,3.780512571,12.70411587,0.741268754,63.8284874,196.474085,-23.48528671,-13.39613819,-2.306942225,132.5356481,164.128444,0.219466859,21.21256799,0.003970919,0.017103773,0.131231114,0.145612553,0.183442011,91.5479976,68.88277143,5.178085327,0.269925028,114.5344519,-26.93565178,0.152167305,36.70443157,35.64194331,0.093508303,100.7172855,0.000202386,-10.04293346,77.41515605,59.61384083,35.92002268,-28.43971443,1.071863651,1.468732595,0.827382445,5.607621193,0.002299296,380.8357973,311.1825159,-0.00035357,456,24.73346901,0.210096449,0.137257665,-0.195023894,24.82724762,2.62313056,0.189504936,0.001406252,4.093858242,4.861670017,2.444377899,83,1.60E-05,0.004020453,0.560125649,11.61239784,5.89E-06,0.113436018,0.028489059,2351.041525,0.106914101,2900.007449,15.85734756,-0.00214486,2482.404435,0.004652692,-2.971794983,1.82003212,-155.6894791,0.001127636,0.022942631,0.020946153,2.38E-05,0.354637206,3565.897287,0.000455452,0.003145095,0.014938335,4427.125017,2.568688493,0.713149369,0.003334196,-5.25E-05
0.000134259,5.159430003,4.96743536,120.3614271,20.9266676,21.06117345,0.006209644,0.031991024,0.280196884,0.018486537,0.02006705,0.05545961,36.21174491,24.55795966,23.34912367,0.002504897,0.202220673,-77.61946869,3.518869638,12.367136,0.940269291,79.78926849,258.3619262,-77.92579651,-19.91544724,-2.793852568,66.58338645,214.1975193,2.705250297,23.79810552,0.004461338,0.014941403,0.095909111,0.016691873,0.009785252,120.5386609,83.21560036,-3.840344667,0.107206948,72.29909857,-8.650866508,0.14045009,27.62605657,26.95985407,0.279150486,60.80423485,6.01E-05,-22.96187401,76.07598811,52.97496903,44.44837278,-42.93722534,1.296300054,1.227785468,1.598908663,7.698947906,2.64E-05,54.76136674,36.71226278,9.87E-05,397,17.64397049,0.279492378,0.380768925,-0.237260401,41.06377792,2.370048523,0.323441356,0.001521353,6.947474003,4.793765545,1.908282161,86,6.21E-07,0.657226095,0.000315307,12.04365789,2.75E-07,0.133837155,0.023076599,1706.335809,0.133951266,3291.771357,6.489551746,-0.001768209,3124.137221,0.002009079,-2.992452508,1.706113219,-339.4448823,0.001586458,0.027702151,0.028160907,1.63E-05,0.353298992,2951.590506,0.000586185,0.005788737,0.008961039,3669.92009,6.982835964,0.6473369,0.000353663,-0.000294838
8.66E-05,1.009720962,3.26090765,26.21231259,27.1362629,26.45944756,0.002663266,0.01034756,0.090485868,0.004856335,0.005613684,0.014569004,19.68382307,31.47412486,31.52635017,0.002419631,0.396170416,-52.1574707,10.07926559,15.80731678,0.806428075,121.3576965,179.061358,-48.4847908,-44.77494431,-2.894251108,19.68382307,155.1071099,0.200059757,31.47412486,0.002067838,0.009387562,0.118200235,0.074652895,0.032303203,18.54035731,15.40518763,-3.577433825,0.118200235,18.54035731,9.255094528,0.130718291,19.3758248,18.31506857,0.030185821,15.40518763,0.000103158,5.620300293,27.85515103,23.25973415,19.44939893,-11.70577526,1.056778312,2.1836586,1.07052505,5.986132622,2.48E-05,25.80365131,19.44939893,0.000116852,107,18.78423309,0.340141475,0.503215134,0.251264989,35.11272812,2.048045635,0.274352938,0.001530297,8.114354134,4.86466074,1.986385703,46,0.00271565,0.000285188,0.000314625,14.16878317,7.19E-07,0.081995405,0.025907174,1452.054216,0.101033205,1940.414904,4.370691789,-0.002356283,2859.916678,0.002337282,-2.984907565,2.199873686,-704.3019676,0.001839722,0.020462256,0.018851738,7.68E-06,0.327167451,2454.756651,0.000700158,0.00756828,0.009151649,3400.977492,-2.093569126,0.679707706,0.00281356,-0.000377187
0.000880895,19.62636672,6.892071724,172.814706,9.989303844,11.13410886,0.0065138,0.027207546,0.233946785,0.014745802,0.015955811,0.044237406,52.42607443,25.03218102,25.96481687,0.006653601,0.461192345,-16.13225937,-4.397908211,10.70212555,0.93513453,88.54134369,169.329504,-1.405866623,6.053696632,-2.167755127,306.6279219,152.8379827,0.07254694,20.47290401,0.008161684,0.058032867,0.053993188,0.117611408,0.079230092,88.72276988,69.46326543,-10.4194746,0.215707034,117.1511082,-35.08829117,0.156124681,23.64335989,15.31192062,0.047493786,88.82264782,0.001787254,-19.66854095,132.8514664,107.1492628,145.3758829,-26.58917618,1.001211166,1.003713131,1.164893389,8.322249413,0.00010818,214.1789554,145.3758829,0.000321098,260,31.80442047,0.443975687,0.743961155,0.042287488,24.42051506,1.875118017,0.219518408,0.00224534,4.971800327,3.516811132,3.303421497,77,0.00028808,0.188739596,0.000226162,8.087449159,7.94E-06,0.069841762,0.014813866,2610.535534,0.084730475,3589.721276,8.767848039,-0.000984274,2359.148016,0.003216391,-2.984541576,1.446078658,-81.48218041,0.001105929,0.022264561,0.017654067,4.60E-05,0.306116194,3149.290826,0.000458872,0.003601608,0.006704026,3009.955868,6.431090105,0.529659629,0.003012784,0.001185062
0.000161413,1.618079257,2.893761396,23.32300895,27.72489277,27.05792668,0.002522779,0.01145413,0.101904707,0.005268026,0.007004634,0.015804077,17.88296029,27.34353866,29.07331142,0.000950759,0.189047749,-40.99767303,-5.947602272,15.10346508,0.628252864,73.28101349,115.6231475,-16.05429077,-20.70186996,-2.528275013,22.29457629,104.7863149,0.039625111,24.78510364,0.002970877,0.016174956,0.14717488,0.54091531,0.185039893,28.65571604,24.03156097,9.990904808,0.141323164,29.6021182,9.06110096,0.166532829,28.32889446,27.64144684,0.085283116,21.01308448,0.000135942,-14.72323322,23.11889219,19.44563636,17.81414368,-35.99463272,1.236861467,1.270696759,0.816558599,6.389259815,8.35E-05,22.31978477,18.43770483,-0.000147418,129,26.8677063,0.201736733,0.842693329,-0.036287986,22.53966904,2.211472511,0.206038237,0.003600136,3.803192616,4.572273731,2.454518318,54,0.000640641,0.413209654,9.48E-06,12.55948499,1.36E-06,0.086750417,0.016318584,1715.304705,0.095994635,2520.105457,11.24590611,-0.003211708,2570.169838,0.002439236,-2.990302071,1.89828074,-559.3107077,0.001181244,0.020131804,0.018961746,6.03E-06,0.322279483,2452.06363,0.000669938,0.00780916,0.001198224,2380.327809,5.583121176,0.51262325,-0.009849596,-0.001778046
0.000330391,9.238401232,4.720716,210.3783249,15.04854712,16.50800985,0.008702523,0.053595254,0.550211119,0.014658712,0.021118199,0.043976137,405.1987168,18.47181172,10.78591104,0.003450699,0.437193829,-17.76715279,-1.182013631,22.12282753,1.315009952,98.15437317,191.9519103,-5.229338646,-20.6815052,-1.918640018,325.32973,166.3064949,0.00715205,15.97653311,0.013332513,0.091221027,0.115060478,0.23256129,0.330464303,288.8396089,219.0950054,26.45199013,0.116169341,213.0517317,6.334763527,0.164271951,21.25815733,15.91481769,0.030655799,256.0758904,0.000687428,-11.56222916,338.8424428,257.2365642,435.841058,-27.52802849,1.454947472,1.346245289,1.084619761,5.822751522,0.002080728,439.5744013,352.0032147,0.00020741,403,32.53596497,0.372412682,0.495148778,-0.004873089,30.54468536,2.713810682,0.432413787,0.010289835,4.345316887,4.435643196,2.491503,64,2.99E-06,0.241256735,1.96E-06,9.685553689,6.90E-07,0.090903825,0.046106208,1968.025203,0.107499845,3321.653127,13.96409255,-0.00228832,3270.381721,0.002890331,-2.987264082,2.304323435,-7.105192126,0.001958883,0.050184645,0.037846044,0.00018308,0.419726759,3210.39733,0.000553296,0.004709889,0.005143722,3245.768424,11.92218815,0.656482577,-0.00655112,0.001368175
3.87E-05,1.313537604,3.855163336,24.301022,25.51955173,24.93836603,0.003861544,0.017847293,0.15611211,0.009938144,0.010263741,0.029814432,25.99908817,24.78024588,25.02030202,0.001528496,0.152255225,-31.19731712,11.53240108,19.78515816,0.855112433,72.81131744,197.6244578,-40.27030182,-27.65283012,-2.187185049,25.99908817,168.9044763,1.033670722,24.78024588,0.003217763,0.022077232,0.071889609,0.012394517,0.00355269,28.94925562,21.36397084,-2.456679583,0.221220955,40.7110761,-9.115449905,0.135327056,21.41972532,21.70021267,0.030744409,31.35468306,3.78E-05,-1.063606381,33.7418395,24.67391598,22.97300995,-7.323093414,1.194765091,1.089772344,0.635399818,4.770789623,2.64E-05,27.63197396,20.07274365,-0.000272941,223,29.04825974,1.009481549,1.079870105,0.10075821,22.18162727,2.095097542,0.193280876,0.004142034,4.015131474,6.132905483,1.87829566,85,0.000727739,0.000190962,9.52E-06,11.3094982,4.96E-06,0.11789159,0.043243788,2368.404225,0.121302652,3637.209838,10.51066575,-0.00144202,3147.22311,0.001462478,-2.99507249,2.162427187,-427.2883867,0.001040263,0.021244403,0.018557524,9.24E-05,0.384758711,3390.861399,0.000486683,0.003280712,0.013532972,3787.639536,-7.313246087,0.726766706,0.194530986,-0.002160622
0.000146487,2.894229825,8.395259857,77.32605492,20.33340512,18.91235306,0.017617794,0.06561046,0.849738944,0.026219294,0.036928755,0.078657883,187.0945098,18.90361816,17.33224273,0.002909629,0.259501398,-7.154114723,35.01968765,17.67480087,0.75927496,76.85250854,156.7158422,22.42238998,-12.49821663,-1.774180532,82.37372225,139.0037446,0.183465075,24.62236408,0.003078435,0.011267191,0.364698261,0.305326104,0.239830524,58.34502397,45.8066292,-28.92095566,0.181647509,77.12135498,-38.45781708,0.154985219,28.48432342,27.99773274,0.001340926,115.0475788,0.000259636,-4.323203564,140.2226558,109.7945742,76.79010389,-22.40462303,1.239593029,1.17262125,1.06428659,5.048172474,0.000428053,131.6856017,97.39686724,0.000439456,340,26.87218285,0.379897833,0.301326364,-0.105809592,22.91234779,2.808025837,0.183736563,0.001266837,4.062609673,4.244115829,2.92843771,77,1.13E-06,6.85E-05,0.013615473,12.04926468,9.75E-06,0.059796202,0.01836939,2179.741728,0.086624441,2737.013558,13.98028011,-0.005259898,2798.342127,0.002565427,-2.990215715,1.884303093,-31.43624931,0.000935328,0.021077756,0.016305508,3.25E-05,0.357226878,2733.250749,0.000522993,0.005066004,0.006970799,3012.872714,5.692984091,0.526372075,0.008797227,0.000249193
0.000107124,1.170723385,2.903982162,34.87831757,15.79294804,17.05492491,0.008685047,0.075721778,0.6969264,0.034061469,0.052512598,0.102184408,44.69409629,17.01794546,17.53092519,0.004848808,0.6969264,-2.880377769,30.09082603,18.37831497,0.72950536,65.10681152,115.4939029,-18.67299461,-3.962347031,-2.618465424,35.84072764,104.8724788,0.033047596,18.32591201,0.004610758,0.028147958,0.165750802,0.205793038,0.093479194,34.78376851,29.03005361,8.88105011,0.041713763,37.17385745,3.173993826,0.151830703,22.69972256,20.94730972,0.118199632,39.63094707,0.001048363,5.178201199,52.10400953,43.66688287,35.60824623,5.469951153,1.079981446,0.777921975,0.771978974,3.741314888,0.000108088,27.71063721,22.86406245,0.000239784,335,26.62897301,0.020645825,0.013614698,0.029657863,27.31553459,2.701283932,0.300584316,0.000964472,5.101293564,4.956305027,2.537273645,53,5.63E-05,3.28E-06,0.003043887,11.67220159,2.39E-06,0.096063198,0.016020618,2292.23421,0.088237118,2529.471139,5.498767839,-0.004005695,2189.518167,0.002417083,-2.989133876,1.41675365,-402.1350271,0.001593673,0.02208218,0.022777794,1.05E-05,0.291968673,3047.241502,0.000537263,0.005283904,0.006990266,3952.794629,6.956083488,0.566550195,0.001218232,-0.000222885
0.000108717,2.303587433,6.75803566,35.24296547,20.08879609,22.09513892,0.004561724,0.037708758,0.33096208,0.020646112,0.026303745,0.061938336,42.37468959,20.00511224,19.35204543,0.004229153,0.423045021,-31.58576965,1.122598648,13.64142132,0.743464887,76.75456238,173.7805743,-7.371162415,-23.28431892,-1.732026458,28.98255563,150.9576656,0.010696575,20.27493205,0.003187312,0.029411414,0.095646828,0.806824565,0.214849189,39.31948787,30.67496152,-5.459403515,0.142109424,45.84502654,-6.798442841,0.176624462,27.09462226,26.42707223,0.002542833,30.49519512,0.000114538,-8.640971184,53.20226256,40.35753649,25.23508712,-8.612434387,0.997381628,1.784525037,1.788566828,12.4489069,0.000123123,40.20003377,29.68942119,0.000184867,230,25.61938667,0.641276181,0.826934397,-0.144595519,27.36758041,2.481441498,0.137529001,0.00169974,4.922856808,4.840839386,2.737279654,76,0.000121274,0.008976006,0.000731612,10.83002702,5.11E-06,0.078746716,0.028842364,2523.832146,0.096960267,3278.547355,5.733010334,-0.001518633,3154.270113,0.003088128,-2.985836021,1.484960318,-358.2328668,0.000707234,0.013067498,0.0099855,1.35E-05,0.399442106,3672.09994,0.000559383,0.003579428,0.009384211,3910.536052,-0.411917412,0.609451234,0.004580489,-0.000426074
8.48E-05,2.575846216,3.833632946,94.18181594,10.821794,9.68332163,0.016701523,0.107096088,0.938735953,0.061041637,0.062270663,0.183124912,86.97082528,10.51626266,10.39903361,0.023492574,1.492219706,-6.666657448,2.871609449,10.22075939,0.276781112,96.63522339,255.2264416,-21.32805443,-13.60413933,-1.557869911,67.64460421,209.8391436,1.275441296,12.03293657,0.010518891,0.068228074,0.201149225,0.002051017,0.000819769,92.36533192,63.24830978,4.641486645,0.145165443,101.248207,-1.266699553,0.12950933,13.92507952,13.6638862,0.268250465,70.31952492,9.02E-05,-16.08298683,145.4766639,101.988737,611.1548816,-20.7366848,0.861130774,0.928262413,0.908787429,4.451452255,6.00E-05,104.9865105,71.41835616,-2.90E-05,376,21.49108124,0.669713497,0.645888507,0.101601437,24.44548607,2.444733858,0.345755458,0.015796872,4.972101212,5.135172367,1.817128539,95,0.000118027,0.267941529,0.000549157,6.664515946,1.47E-08,0.095400207,0.010246857,3294.423035,0.085916428,3991.60398,7.846973206,-0.003710076,3113.201493,0.001459572,-2.995529518,1.680938601,-112.356483,0.001511305,0.0402698,0.028041612,3.69E-05,0.446379304,3641.879248,0.000420466,0.002592993,0.010666638,3459.571809,-15.99134516,0.520088732,0.001710616,-0.021681874
0.001478276,38.33106089,6.865212917,87.30818529,24.39086093,22.4503907,0.006180492,0.032523426,0.285299725,0.01823725,0.018550051,0.05471175,24.63174643,26.47052368,26.26464228,0.003102008,0.333335019,-10.8763485,-9.511410713,7.674264431,0.694562972,77.25445557,212.3608587,-22.29418564,1.556040168,-2.023508787,25.41293683,179.8157171,0.70748414,25.79009653,0.009867505,0.069473004,0.106646664,0.008578026,0.019559629,42.97323839,31.90670307,18.65854645,0.271891773,38.4922476,-12.05172443,0.187788963,26.99395689,28.69136767,0.001937016,17.20549473,6.85E-05,9.170359612,51.59369868,38.06467922,26.64007489,2.346822739,0.901074767,1.119933605,1.001035929,5.788208008,2.91E-05,29.97890089,21.65408959,0.001330091,229,33.55519867,0.212053582,0.531668365,-0.151674256,19.33596802,2.116957426,0.338926613,0.014642823,2.787650824,5.551362514,1.588324666,77,0.00015219,0.382813279,0.00106693,10.99704233,3.53E-05,0.086954279,0.019066522,2400.488212,0.080017693,2710.948711,11.81252709,-0.001780186,2752.154333,0.002945265,-2.98739926,1.730615139,-320.6327261,0.001381503,0.03024143,0.027964041,6.08E-05,0.358800739,3068.717957,0.000684037,0.006704653,0.00749545,3492.090953,2.278505629,0.728108525,0.001905213,-0.025140616
4.51E-05,2.909983254,3.66922164,28.2321654,29.30008565,28.93785389,0.002295096,0.021550582,0.188155131,0.012693079,0.012911137,0.038079238,25.67467591,31.69815486,30.98566405,0.003772293,0.400498235,-18.54041672,10.09759617,19.74801445,0.704421759,48.22665405,269.6543671,-31.45854187,-28.1523819,-2.17401433,30.81674622,219.2900937,0.763351394,26.52791228,0.002914509,0.010529862,0.120490156,0.003884294,0.004838507,32.00419945,21.79195884,-27.55200958,0.303475231,26.42950894,-11.2752552,0.219367206,34.63143555,34.26727607,0.476412475,21.88755954,2.62E-05,-13.17670918,37.13858092,25.27042968,29.28381647,-23.63585854,0.850125372,1.533824801,0.720873833,5.610206604,3.26E-05,39.18718691,26.15315539,0.000411168,300,6.596310616,0.864036739,0.968027532,-0.445634246,32.09576416,2.426733017,0.266904742,0.003481145,6.943947792,5.835996628,3.157430649,109,0.000532303,0.745304635,0.00353945,11.30991244,5.16E-06,0.1079429,0.033085775,1879.85049,0.110491779,2631.86617,8.705970121,-0.001876416,2573.092085,0.003948741,-2.979886144,1.114856124,-71.06929325,0.001261445,0.033278018,0.021916622,3.44E-05,0.392619699,2808.836119,0.000589781,0.004445379,0.004628893,3038.276884,1.392854484,0.739533484,0.002859956,-0.001271711
0.000323936,8.788781523,6.235015392,41.43660963,22.33292507,20.90220001,0.005519783,0.023712222,0.206647,0.013654649,0.014692671,0.040963948,33.55502472,22.97211353,22.34799379,0.001684366,0.248551255,-8.328061104,-12.84752941,11.26862717,0.616997242,76.26761627,196.9928863,-0.834606171,-0.503979683,-1.783520937,26.6191689,168.0700392,0.646569528,22.13724861,0.003351714,0.01803496,0.14893657,0.049038108,0.105782226,54.97193384,41.11722781,-7.934204578,0.299155861,44.68511059,-15.80402374,0.218888983,27.84201939,27.07582326,0.003269047,25.55430944,0.00043536,1.848141193,92.64791678,70.87535773,141.3199578,-9.063754082,0.95398742,1.260223269,0.414650887,2.649327755,0.000730853,118.5903767,90.52613348,8.14E-06,414,28.36839485,0.032107044,0.212039471,-0.133851722,30.35922432,3.050928831,0.183774531,0.000754131,5.217739582,4.74113369,2.069395304,74,3.98E-06,0.000136874,0.269810428,10.90391885,4.01E-09,0.091190209,0.029162891,2683.332464,0.106872536,3626.552075,9.569563875,-0.002263722,2669.749877,0.001949952,-2.993577476,1.408527613,-199.4843297,0.001037006,0.015626425,0.015236226,7.94E-06,0.390133858,3582.462615,0.000477718,0.003462486,0.019013062,4807.747769,1.103206577,0.673218668,-0.002776693,0.000371823
4.28E-05,1.267660305,5.76395607,21.99246251,25.80484792,26.90085005,0.006122475,0.064267432,0.567386241,0.039419439,0.035876363,0.118258317,22.32570627,23.63443969,24.66011,0.002818959,0.169595042,-35.42371368,-5.504410267,19.13635826,0.66848886,70.69045258,180.7186156,-24.34792137,-13.0706768,-2.847036362,24.49267811,156.0974731,0.475510505,26.16235918,0.002712061,0.017650452,0.179174349,0.010415687,0.018312082,27.19495747,20.23859861,-2.451222181,0.195532337,37.26771171,-20.92987633,0.175627768,28.0184662,26.93696517,0.003531907,29.54742926,3.91E-05,-16.7653923,31.48859426,23.60347705,27.60108942,-16.63469124,0.905540168,1.099130869,0.855047345,4.432034492,3.20E-05,31.22676539,23.50757448,-7.86E-05,216,24.36587715,0.869958878,0.796375334,-0.253010392,26.55298042,2.473848343,0.349629402,0.008866085,4.387533665,5.153260708,2.715846539,72,0.001114821,1.814138003,0.000128971,12.16304261,1.08E-07,0.091614002,0.035387922,1976.914252,0.09171487,2605.180073,4.984684371,-0.00294616,2920.751386,0.003311908,-2.982398822,1.886362076,-378.8240867,0.002112845,0.034564007,0.02988434,0.000152496,0.391034573,3026.959599,0.00065739,0.006234914,0.012386496,3334.543189,-5.317812929,0.697629869,0.006022199,-0.009076499
0.000121149,2.27185342,5.047949314,33.21387754,20.47606773,21.22531965,0.004595236,0.030809356,0.269358976,0.01905169,0.016570196,0.057155071,20.58437559,24.72227745,24.20531486,0.003344625,0.17936251,-30.83913612,-7.807617188,7.76631546,0.481130958,61.40727234,161.5329761,-32.07761765,-18.63414383,-2.531656027,29.68317276,141.9299117,0.201418612,21.82637492,0.016009927,0.030384957,0.083100684,0.035934895,0.026776956,55.27766031,44.02966782,-2.040467978,0.144660205,29.60355351,-8.193404198,0.166729569,28.03491757,26.39424561,0.002778504,26.33319801,0.000192321,-17.62958527,41.4888458,32.98497541,43.18207518,-28.56334496,0.999062836,1.653296113,1.024218678,6.09442234,4.43E-05,31.2217433,24.00958931,-1.01E-05,312,16.82035828,0.358127475,0.445527583,-0.121534012,29.24595451,2.563715219,0.240859836,0.003258005,5.756483078,5.014997482,2.64463973,70,1.49E-05,0.017468893,0.000185368,11.70732625,2.93E-09,0.081508177,0.015230512,2216.642347,0.084256757,3209.175466,2.806837531,-0.002162518,2340.698514,0.002252334,-2.991052208,1.861829877,-247.3687199,0.00152434,0.028176434,0.020879464,2.69E-05,0.345651239,3311.781586,0.000463414,0.003331348,0.009077183,4108.020122,0.076388324,0.675947607,0.003855932,-0.004469339
,,6.926814079,,-1.327470144,-1.538282284,0.004549777,0.028726302,0.252623867,0.014286663,0.016535407,0.042859988,45.58384419,23.67414097,23.76882803,0.006168902,0.956385158,-5.201298237,13.03701591,13.07361889,0.458723426,78.80826569,,29.40280151,-3.778312922,-1.827866793,,,0.051083051,-1.327470144,0.029202831,0.021360087,0.099250615,0.156296283,0.204428509,397.290507,329.4771849,-28.32380295,0.139549479,796.4600789,-25.53398132,0.189306825,26.70316541,26.32933443,0.154974654,329.4771849,6.14E-05,-4.022059917,26.3767104,20.62648696,105.2905925,-16.77755356,1.02964735,1.399499774,1.073789477,5.050810814,6.14E-05,26.3767104,20.62648696,0.000196441,160,32.62693787,0.29038468,0.503526926,-0.030164719,22.87397766,2.577684879,0.180304572,0.001679021,4.507364273,4.255402088,3.31557107,38,0.000190033,0.607306876,0.003496741,11.4203361,2.41E-06,0.100934115,0.020612648,2274.937895,0.100075187,2676.887713,6.339405044,-0.002083381,2703.923772,0.003338159,-2.983517886,1.59362042,-544.6455024,0.00129428,0.021328444,0.018076295,9.07E-06,0.33828944,3370.254722,0.000530433,0.004788844,0.0124689,4527.735338,0.063922417,0.676806092,0.003125731,-0.000849687
0.000161072,1.97550568,3.208473921,27.24133171,22.08613987,21.68486072,0.002368841,0.016890993,0.146802599,0.007425931,0.009670983,0.022277793,31.4127673,25.09724064,24.22664645,0.002609261,0.221760941,-8.481251717,-12.66239452,13.88768196,0.827831686,69.88415527,229.022098,-32.85257339,-4.299628258,-1.878908992,24.52265665,191.7105094,0.691221306,22.17782332,0.012911351,0.035449752,0.145969659,0.003298543,0.004291121,41.96090112,29.73638147,-14.97328758,0.122991316,44.53149933,-15.18753719,0.167315871,27.76150246,26.23822906,0.993271708,26.88812643,0.001885944,-0.727207839,120.511822,92.29160764,28.27735971,-12.18321037,0.986806273,1.39153111,1.014291525,6.682211399,2.99E-05,28.62496349,19.84122743,0.001246755,378,24.06114197,0.207527027,0.363414437,0.12834315,28.56384277,2.676239252,0.298184901,0.00757998,4.972122669,5.686468124,2.039953232,82,4.72E-07,0.000768298,0.261065889,11.94301255,3.06E-05,0.104020853,0.021288536,3301.982245,0.102978167,3182.876706,10.71807993,-0.002328312,2856.522843,0.002142675,-2.992563719,2.043339252,-153.3774368,0.00167823,0.028675947,0.024729323,0.000117355,0.432633281,3274.013944,0.000457756,0.003060286,0.01410512,3483.041262,-2.982358638,0.642507553,0.007772058,-0.003955188
4.73E-05,1.510158542,2.993000984,23.57906074,23.83594084,23.28778889,0.002940918,0.032475921,0.277191965,0.018001145,0.020099269,0.054003434,18.87124455,26.67661523,24.03009607,0.001374637,0.238543702,-5.624418736,1.496101141,6.847456455,0.253113002,65.35231781,216.1300298,-1.299552321,-13.22581196,-2.26385355,30.26131335,182.3284378,0.05612191,25.39503123,0.004169132,0.026039119,0.063035883,0.001189408,0.002635477,43.80170984,31.70304661,-22.54960823,0.114639744,19.41981393,-32.38284683,0.15901351,29.47114048,29.36366239,0.582792342,46.47167094,0.000157284,-25.47154236,61.70135442,46.38525731,24.31045667,-17.91776848,0.696700752,0.457344651,0.371818691,3.082710505,9.34E-05,36.81199555,26.1052793,-5.17E-05,310,35.77337646,0.149351016,0.307304472,-0.167351931,16.75383759,2.790224791,0.283416718,0.002286654,2.939738989,4.577127934,2.163691998,72,6.83E-07,0.028788952,0.41240062,11.03997382,6.90E-08,0.08459877,0.004116142,2633.057598,0.079663547,4033.411114,3.278601228,-0.000945484,3317.332372,0.002467323,-2.990958315,1.420287251,-274.9591127,0.001492985,0.022244096,0.019738786,6.10E-06,0.320237428,3418.563222,0.000466647,0.003918544,0.016960677,4489.84511,-0.936352423,0.712666452,0.000453577,-0.000812734
4.35E-05,1.540963914,3.18081975,32.25086511,26.82464172,27.57284449,0.003229055,0.014243197,0.12696414,0.007729804,0.007565115,0.023189411,50.02944927,29.34306391,29.07922774,0.001277317,0.115530339,-39.26268387,14.03081894,12.63585472,0.35170567,70.26933289,212.7645369,-45.50354004,-16.73556137,-2.808418751,22.8456365,180.1088211,0.238611294,26.96041471,0.00176153,0.005650319,0.145123482,0.003315569,0.002184901,35.51862186,25.43888849,8.926346779,0.191641673,51.69757562,-18.64255714,0.145727664,38.3362968,38.9141361,0.345663488,30.35985347,0.000544396,-2.448263407,74.23835319,58.17636859,113.0987203,-11.20597744,0.679130256,0.5340119,0.876552045,4.734847546,0.000574954,143.7657138,106.6158372,0.000175054,405,27.74925995,0.413199544,0.583339274,-0.255367339,26.45783615,2.488268137,0.190153956,0.001951687,4.246501446,5.382944584,2.273835897,72,0.003447195,0.095776539,0.001734827,11.10999279,1.72E-06,0.104691806,0.015661273,1511.119926,0.096190053,2643.055664,10.38735454,-0.00204952,3356.835773,0.002411563,-2.990660864,1.715943098,-187.110975,0.000870975,0.019934991,0.017661018,1.25E-05,0.418642521,2750.791313,0.000622496,0.006433592,0.007209104,3349.75006,4.521055317,0.708658695,0.00118497,-0.000414296
0.000130252,7.679313795,3.567147493,33.17373894,29.35254103,29.92344084,0.003247298,0.017447829,0.154422351,0.008289479,0.012189215,0.024868436,34.21388779,24.48370423,24.81478291,0.001154573,0.155283076,-82.71374512,4.647998333,22.97389221,1.161064506,105.7735596,266.6185381,-67.78130341,-6.639639854,-2.428679466,67.14468738,221.1040142,0.305970113,25.96187612,0.001594815,0.011862719,0.170232683,0.005144909,0.003075023,50.23737445,33.9488592,17.35811806,0.226141199,118.8714404,-9.082399368,0.133414015,24.37861956,24.54895448,0.213341281,52.23455857,0.000110317,-20.30680847,52.26012067,36.45566859,42.92505358,-5.554628372,1.129970551,1.128263593,1.51521039,8.011971474,0.000243192,79.94826928,52.94580199,,,,,,,,,,,,,,,,,,,,0.142482835,0.023656782,2036.678391,0.14764073,3993.766063,13.28110841,-0.003440564,3090.650619,0.001095364,-2.996461782,1.772389174,-465.8507071,,,,,,,,,,,,,,
5.47E-05,1.6520477,4.753569603,29.31821154,27.52823756,28.67364576,0.002723591,0.031982848,0.265585922,0.012662241,0.015506557,0.037986722,53.71108628,25.93250328,24.37782664,0.001117195,0.183348813,-35.54058075,4.131081581,18.97127914,0.510120928,66.11847687,194.9130413,-28.24601746,-6.545250416,-2.489660263,35.49126881,166.9048709,0.451984867,28.91316153,0.002657549,0.014926342,0.137654066,0.050905555,0.057577465,42.43541177,31.91109521,18.19937706,0.139634788,172.3905039,2.751110554,0.113643922,31.61085323,28.41069172,0.001788773,54.82274761,6.41E-05,-13.57630348,41.05224961,30.82925255,55.05739632,-10.38601303,0.882782459,1.053221941,0.82519865,5.769338131,5.40E-05,48.54875551,35.72707934,-0.000136501,246,24.92798615,0.973910332,0.727047265,-0.244114026,28.1139946,2.874736547,0.336878002,0.004641808,4.002906799,5.586105347,1.846070051,66,0.000152104,0.130684796,0.000211149,11.08199292,3.34E-07,0.081053027,0.014010016,1874.61686,0.098644457,2889.388866,6.758643445,-0.00205946,2285.191952,0.002992892,-2.985596379,1.836793303,-304.705094,0.001683302,0.039003447,0.030659895,2.85E-05,0.479532063,2824.660524,0.000736925,0.007044,0.004129033,3398.197218,-1.741624301,0.797844648,0.011524161,-0.002454787
3.30E-05,1.033769688,4.241246223,27.48954954,25.81903196,25.20755905,0.00253899,0.01191924,0.10423443,0.006383888,0.007444622,0.019151663,22.70471705,30.04084058,29.36909638,0.001623584,0.218515339,-48.90203094,14.2587719,18.62237358,0.840199232,64.67306519,234.6100969,-24.54285812,-20.58975029,-2.443284273,28.20625143,195.4471992,0.329447491,29.23874784,0.002574688,0.019655537,0.109890364,0.002026937,0.004543794,39.59039349,29.02057523,12.59948444,0.239252701,39.29610368,-1.742841601,0.170348078,29.46101163,28.51205341,0.542796791,25.91318444,2.26E-05,12.93658447,28.73348574,21.22430835,29.76552209,-14.25842476,1.025989652,1.500786543,0.69501853,4.268742085,3.14E-05,36.51652275,25.74921664,0.000444187,342,8.004658699,0.897297621,1.078038573,-0.301633239,25.04784775,2.413712263,0.348619401,0.008289044,4.394705772,4.665491581,2.100992918,96,0.000138857,0.540671618,0.001501241,13.13980718,2.46E-06,0.056429566,0.034520138,1920.02913,0.084779206,2751.132548,6.18512515,-0.001736327,3021.512107,0.003261833,-2.98403482,1.853333592,-59.25499542,0.001414602,0.036119156,0.02432639,8.36E-05,0.49281323,2725.478228,0.000731962,0.006674294,0.011145652,3296.346176,-2.302113065,0.666245997,0.004117054,-0.006799117
8.94E-05,2.381638206,2.45773387,39.23969848,26.8962343,26.85069394,0.001471787,0.011623038,0.100429347,0.00592069,0.007064584,0.01776207,20.55278797,31.63945867,29.61346954,0.001341755,0.193089768,-43.73919678,8.941366196,12.83443928,0.615665555,67.53746796,198.6542324,-28.81868553,-30.75085831,-2.543622017,17.23783811,169.5844852,0.148573885,26.96547812,0.00253276,0.029117788,0.172060326,0.991452157,0.056218196,30.73538691,23.54520129,-17.42581749,0.266756028,75.85511393,3.242869616,0.140934184,30.39843824,29.87204925,0.000610274,19.18447338,9.10E-05,-17.97142792,43.53914755,33.43102729,19.56767212,-16.54180717,1.084460735,0.723897398,0.704691529,4.712203026,3.40E-05,33.93508101,24.82970852,4.51E-05,333,4.063892365,-0.137706965,0.415786088,-0.273391634,36.24889374,2.460934639,0.284590185,0.001409011,6.00498724,6.330706596,2.258825541,61,0.000110387,0.287505552,0.013676473,11.3522695,5.78E-08,0.085015673,0.017449731,1660.711331,0.113710244,2375.752452,7.647410648,-0.002704672,2977.530144,0.003391364,-2.97723398,2.031230927,-194.848382,0.001572332,0.029970136,0.029721988,4.00E-05,0.421741098,3136.755602,0.000684719,0.007844669,0.00428557,4135.490294,2.673848698,0.779280841,0.001973578,-0.001299394
0.003276732,192.3957471,4.430325985,1034.895748,0.702606835,1.913493377,0.051574434,0.235923756,1.70952807,0.126642761,0.347553684,0.379928283,1034.819691,0.721030837,1.914550157,0.024849829,1.821778057,-64.99140167,-28.67790222,8.09553051,0.382929325,286.5331726,256.0055952,-64.81272125,-11.21883106,-2.43561101,1034.82613,117.6563442,0.008286553,0.719881045,0.072906932,,0.064125508,0.514809906,0.275998712,614.6281747,410.9094198,26.91179085,0.064125508,614.6281747,11.33065033,0.07709448,5.651012921,7.672306138,0.211502314,410.9094198,0.001496556,16.01072121,683.6316355,363.1840338,363.1840338,16.18801117,1.112134218,0.736898243,0.307456642,2.920793056,0.000308354,281.3307894,150.1113827,0.00068061,222,23.24873734,-0.04172498,0.704190612,0.039285541,25.26900482,3.874291182,0.207780585,0.006932076,4.435023308,4.646398067,1.815596819,117,0.000927231,0.000126585,2.49E-06,5.790372563,3.50E-05,0.172362784,0.006839438,2434.289026,0.172380153,3551.924693,2.669937793,-0.00085582,3090.334659,0.001976876,-2.991945107,2.716593981,,0.001305069,0.033361111,0.022256842,4.68E-05,0.49656707,3988.68117,0.000551299,0.003218921,0.012036378,3466.835172,-49.47587351,0.360606581,0.003448214,-0.006133436
2.86E-05,1.12566674,3.895303488,19.16658916,29.57791194,30.37234685,0.002048556,0.014101482,0.122832352,0.007911112,0.008982513,0.023733337,23.29602066,28.28931677,28.03605934,0.000802099,0.142581052,-92.1209259,-13.77098274,21.27443314,0.833835244,88.91967773,261.8603666,-77.61131287,-6.573556423,-3.043649673,24.41219909,214.1704693,1.829726941,29.74370483,0.001996867,0.015284775,0.110207036,0.015974762,0.011174957,27.79634631,20.1876999,5.832788467,0.114767142,42.47361007,-10.60652065,0.161330834,25.00760036,22.34464771,1,18.49521532,2.86E-05,5.60476017,25.37559584,18.29677527,28.62968607,-22.22335052,1.494831085,1.652015209,1.509091854,9.236558914,2.96E-05,28.99760267,19.54117464,7.41E-05,379,14.93701935,0.390497237,0.589096844,0.000571778,25.31132889,2.491216183,0.121411674,0.001547239,4.65985775,6.128972054,2.07944417,103,1.55E-07,0.140822887,3.75E-05,11.52267037,7.94E-07,0.129731433,0.024838127,1673.485649,0.154254955,3148.610662,9.380144946,-0.00181243,2984.668178,0.001795499,-2.993912045,2.064415216,-1008.894068,0.000607075,0.012311416,0.009727933,1.65E-05,0.37979278,3090.140781,0.000585734,0.004634013,0.006838857,3917.565668,-5.51277599,0.659473121,0.019473553,0.001065844
0.000144263,1.967973332,5.174197674,71.01155656,8.700828246,11.7940549,0.005198665,0.018934154,0.165161103,0.010586614,0.010850656,0.031759843,28.63367515,24.8489746,24.03797182,0.004292054,0.540648798,-19.1789875,14.46777344,14.15010262,1.17862606,110.7343674,120.1109358,-35.46884537,-17.69942856,-2.398613453,25.25695391,108.7319329,0.362254585,25.60337795,0.004080123,0.024931534,0.130042478,0.066976868,0.016995667,27.44432044,23.5589863,-24.10481834,0.172573268,39.38426279,6.237277985,0.089002669,18.7779242,18.54660687,0.040490393,17.79950385,0.000227223,-8.491548538,38.82403061,33.19455298,28.38708292,-10.78659248,0.944832027,2.7367208,1.647640347,8.785050392,5.18E-05,29.54410397,24.21429216,-0.000267636,69,22.31843948,0.225271091,0.951038599,0.08302661,29.61052513,2.098664045,0.229507685,0.003035369,5.740305424,4.755367279,2.699971199,34,0.00178359,0.239719435,9.90E-06,10.67940279,5.15E-06,0.109136632,0.023841538,1929.233382,0.103997639,2656.672147,7.985502895,-0.002599372,2614.480585,0.003136929,-2.984194174,2.095723867,-299.6618843,0.001609247,0.020339187,0.019538181,0.000106804,0.359493762,2954.332751,0.000607146,0.005681574,0.00834552,3067.238844,2.677811391,0.510637522,0.016107701,0.000644259
0.000107911,3.121074013,3.215490341,23.94394082,26.51019884,26.35713055,0.001661723,0.015566099,0.136398945,0.007949449,0.010162403,0.023848347,20.98589368,31.51123035,31.39779472,0.001531046,0.22837617,-32.25745773,-1.692474484,11.20593739,0.588356018,57.37519073,231.3939567,-20.05643082,-19.91908264,-2.13928771,14.06871917,193.0944205,0.198582369,28.9485625,0.004475762,0.011029715,0.123997129,0.658079088,0.256444871,31.3197217,24.00137607,20.18647766,0.172715276,34.47860619,5.829444885,0.164483711,31.19813792,31.45330323,0.014822873,20.14307643,5.91E-05,-17.56911469,26.93420751,20.54413293,16.54447022,-23.69987106,0.844422579,1.352244496,1.152660012,5.720882416,1.81E-05,22.99806732,16.12724969,6.04E-05,318,24.94608498,0.123041652,0.657956302,-0.148692161,33.52825165,2.242522478,0.356017441,0.0036501,5.853236675,5.393522739,2.66335845,87,0.000310098,1.639084275,0.012582971,10.65617023,9.27E-08,0.078703822,0.018203693,2286.300783,0.085239658,3409.332363,7.138427964,-0.002136758,2452.780709,0.002700959,-2.988901154,1.419033885,-446.7885228,0.001803085,0.031199886,0.032681257,6.89E-06,0.407080412,3313.539976,0.000553952,0.004435789,0.007154566,3884.093354,-4.989221186,0.800984621,0.010978471,-0.006594038
8.57E-05,2.779387974,4.109526634,44.33329756,24.01345692,24.70711559,0.002756632,0.026761394,0.241588477,0.014899404,0.016659739,0.044698211,33.79281669,24.53072086,25.96836941,0.001853146,0.191889145,-48.0457077,5.318487644,11.06712627,0.527295232,59.02038193,254.7659462,-39.96006393,-20.05615234,-2.040601969,28.19816854,208.5235281,0.829944401,24.62818554,0.003182193,0.021682465,0.100400291,0.014624808,0.007495377,46.83061137,33.18734701,-11.70493412,0.16694425,45.14180056,-25.43512917,0.127027214,28.7495053,27.91355559,0.006165283,22.91786741,7.59E-05,-1.936324,52.63098929,37.53733097,24.93043824,-11.76037121,0.822547257,0.820773005,0.770638406,5.030649185,4.14E-05,39.87743445,25.96593123,0.001714115,389,36.15032196,0.454623818,0.565866649,-0.301631778,23.40668488,2.42331481,0.287930131,0.00467605,3.832755327,5.650958061,1.729253769,103,1.20E-05,0.003347799,9.20E-05,10.69329674,8.56E-05,0.114540988,0.013438802,2446.158044,0.119033506,3756.507756,12.99179085,-0.001723197,2618.694014,0.001969166,-2.993687484,1.629841566,-336.2015634,0.001436789,0.025016524,0.023544585,4.75E-05,0.300984681,3355.297287,0.000362592,0.002483578,0.00592088,3739.194376,-4.133696094,0.814958751,0.000394012,-0.002207136
0.000210651,1.672512233,2.771859884,21.06469161,25.91441723,26.00322112,0.002316654,0.025319266,0.219895134,0.014367581,0.014532961,0.043102743,16.16453697,27.27097916,26.85302765,0.001868239,0.378150449,-6.841875076,-13.01785088,15.57669544,0.89052552,85.59264374,93.2558561,-7.486460686,0.184566364,-2.748786688,15.99871582,86.19636308,0.009403047,27.37988816,0.003352151,0.016249015,0.159887418,0.087676868,0.030789018,23.32899631,20.08639218,-11.749156,0.176143795,25.38036425,-10.62932491,0.152229771,22.86138006,16.82342089,0.053957693,21.26934704,0.000167614,1.660899162,22.59952198,19.42217523,23.34292363,-5.877151966,0.925280869,1.256236434,1.165031195,6.480230331,6.72E-05,17.07449539,14.61706524,0.000118469,127,19.94889641,0.610507011,0.439589143,0.153769493,27.83067322,2.646424294,0.293549597,0.001048324,4.957408905,4.195280552,2.874423504,31,0.000454807,0.756765426,0.011555733,13.30712943,6.08E-07,0.088517974,0.039443608,1477.597202,0.085026252,2292.895308,6.316521871,-0.003127137,1881.644862,0.003147383,-2.98500227,2.417558193,-564.1777369,0.001844641,0.021667819,0.017697692,2.86E-05,0.380804121,2770.317219,0.000725865,0.008556567,0.009096722,3320.879271,-11.88521462,0.791922569,0.079950719,0.000298679
0.002698345,60.63403036,3.896773577,319.2341085,8.746353214,9.662061268,0.005435865,0.027904866,0.239762366,0.013797332,0.014965768,0.041391997,31.38298568,20.83513368,21.11359181,0.002718217,0.257374054,15.27524567,17.88921356,10.6293087,0.517285407,62.30080032,116.7961005,37.51643753,-4.28574419,-1.695629358,22.57059196,105.9121663,0.007338056,25.79878862,0.00752288,0.046261733,0.104500808,0.566863656,0.277688146,40.73054273,35.63393801,-6.305819511,0.129777759,57.94294842,0.996360421,0.194283843,21.04127527,20.29859288,0.047090892,23.78307749,0.000324173,17.90916824,64.17801679,56.21805948,33.60259112,-3.374018431,0.762725711,1.090891838,0.634770751,4.134675026,7.32E-05,27.09083875,22.26801147,1.27E-05,130,27.85021782,0.146654382,0.764586866,-0.131053075,26.95014954,3.032305479,0.126652598,0.000800343,4.924073696,5.596456051,2.914885044,33,3.57E-05,0.013308266,8.69E-06,9.726428864,3.50E-08,0.047019284,0.01550431,1853.694663,0.081551228,2082.781839,7.728219213,-0.001949754,2348.541873,0.003245424,-2.984248112,1.992136478,-219.1395456,0.000810041,0.01243879,0.011659282,3.79E-06,0.370422989,3193.441552,0.000645394,0.007476865,0.004715724,3961.815537,-4.993674966,0.57629782,0.00048995,-0.000243985
5.40E-05,1.719834185,4.73966217,37.95986673,22.23508374,21.18940103,0.003602499,0.028346962,0.25012963,0.016590446,0.017072459,0.049771339,35.6865781,23.73031497,23.90035147,0.002127339,0.206430723,-41.24842453,3.225601196,11.2756443,0.594842136,62.28675842,203.9965057,-41.20203781,-13.74628258,-2.491862535,32.59126518,173.3507092,0.17642889,21.05368939,0.003300105,0.0118401,0.174014702,0.010022477,0.010704315,45.86630707,34.13254442,17.58961868,0.158557639,34.13914753,6.226670742,0.13131842,27.75678791,27.66220934,0.000980075,22.27359352,5.18E-05,-14.83520126,42.39465631,31.50329567,31.04268446,-12.54586506,0.853478968,1.215190172,0.432155788,3.337595701,4.80E-05,39.07127454,28.37066723,1.25E-05,418,34.43411255,0.059729569,0.358569294,-0.186061695,23.19334602,2.898966074,0.174486995,0.001948307,3.952898979,5.393301487,2.73515439,79,8.40E-07,0.000195998,0.021042638,10.99726332,1.01E-08,0.08814048,0.016930465,2171.603249,0.0896357,3243.869748,7.752799372,-0.002615951,2870.141724,0.003397804,-2.983677219,,-358.5117569,0.000792875,0.016648233,0.014183066,2.94E-06,0.339550614,3563.167991,0.000481087,0.003723566,0.015266698,4809.337898,-2.64998926,0.721524179,0.004932322,-0.001192465
6.61E-05,1.622200253,4.102737427,29.09871561,25.06080506,24.97221795,0.001985692,0.023365272,0.207395415,0.01057579,0.014182449,0.031727371,25.26246898,28.11910825,27.40092645,0.002534,0.451277879,-19.19860649,1.880009651,14.4806385,0.760525465,76.80416107,150.5868697,-15.75364113,-5.92396307,-2.171973228,26.26370917,132.1944422,0.575613219,26.40183154,0.001116848,0.004453558,0.266578138,0.00959458,0.023930095,26.80713946,20.05448087,-25.38638878,0.143838301,38.15278311,-6.359256744,0.146991447,23.22131776,24.09211374,0.005300709,36.63622341,3.51E-05,-19.28720856,42.60157129,30.86266846,26.52724972,-27.61394119,1.040959239,1.313279271,0.947009206,5.444487572,5.72E-05,38.72776797,29.0925048,0.000160332,248,29.76868057,0.477748126,0.342935175,-0.075613782,24.78847313,3.129082441,0.315415233,0.002553208,4.945312023,5.515521049,2.011487722,64,5.06E-07,0.288058362,4.56E-05,12.31990619,8.50E-07,0.106684184,0.027303504,2234.755558,0.108581142,3469.7668,8.817768444,-0.004452251,3161.928998,0.002155995,-2.991787941,1.817603827,-426.0767269,0.001654607,0.022966649,0.021593353,3.13E-05,0.39481312,3132.548752,0.000532014,0.004097835,0.006961761,3318.098118,2.091495538,0.535818756,-0.005009667,0.001614088
0.000158199,0.932210962,4.990265369,17.49475711,22.59398668,21.25800115,0.0029513,0.030636118,0.267999146,0.013126687,0.017757284,0.03938006,17.56728663,23.37630586,24.06263636,0.002149324,0.381853307,-45.92626572,1.487318516,12.01045132,0.534069896,95.44580078,95.16458172,-28.11869431,-7.148525238,-2.648360968,17.91642812,87.70983808,0.003744544,23.28053684,0.003105396,0.020888576,0.116043985,0.428495675,0.122336373,17.80337341,15.57064891,5.722476482,0.088552028,40.05329664,8.598922729,0.140666366,19.04177083,17.12992239,0.014111546,22.90675977,0.000138872,-11.1625452,19.9191521,17.4259233,21.08273934,3.844655275,0.875371993,1.403461456,1.115986347,5.858022213,7.69E-05,20.02915702,17.0570382,0.000106652,176,18.76298332,0.10174828,0.219109356,-0.099432506,25.66265488,2.747181177,0.189654037,0.001580107,4.683527946,5.972741604,3.423906326,44,0.00088572,0.002556036,0.000188349,12.26933215,8.02E-07,0.078926782,0.024114681,1563.979419,0.0993701,2696.515013,4.793134818,-0.002730227,2952.738962,0.003593151,-2.980322657,2.101005316,-545.1339299,0.001308592,0.019693652,0.019238044,8.04E-06,0.33269617,2772.459262,0.000623963,0.007894361,0.005195132,3304.624027,3.096169558,0.486420244,-0.001222827,-7.23E-05
0.000132783,5.73011397,5.971862316,70.13665774,21.92248772,22.14962355,0.00387613,0.031340521,0.288600526,0.016197456,0.0182913,0.048592367,46.56741361,21.99276342,23.35796191,0.001857928,0.216907408,-33.93523026,-5.342938423,15.87276649,0.778609931,50.53185654,231.753089,-23.90795517,-11.4539423,-1.919894695,33.63220257,193.4756096,0.302548827,24.0951666,0.003306781,0.02931119,0.160625309,0.002840121,0.011789552,30.16850102,21.52655138,28.24181366,0.17846787,58.80913442,-0.316492826,0.1762086,25.45154982,25.35252985,0.044119585,29.79768409,4.61E-05,7.362728119,42.20667611,30.12277806,174.3975212,-6.262844086,0.981355786,1.382296324,0.625289023,3.265166998,3.87E-05,37.89742292,26.50629329,-0.000313406,285,48.22292328,0.408969074,0.809890151,0.103554115,29.65458107,2.964162827,0.35478285,0.021030223,4.947881699,5.588166714,3.109391689,73,0.00206644,0.292117169,0.010442105,8.527708418,1.47E-06,0.070747703,0.024256831,2627.058472,0.058843722,3680.052736,12.0937299,-0.002436736,3099.979159,0.002210948,-2.992318189,1.774852753,-446.681901,0.001508027,0.047327179,0.029062154,0.000256458,0.516080916,2985.587744,0.000747657,0.00674547,0.002912432,3430.961853,3.336455456,0.714699566,0.008745488,-0.042319631
0.000101535,1.175581754,5.188319683,26.29858505,19.65053791,17.96997198,0.002394122,0.018839772,0.164691482,0.009170859,0.01186638,0.027512576,22.11621585,23.69226965,22.18689478,0.002065256,0.326967203,-13.83050919,-13.56184101,9.277952194,0.505631447,62.67113495,194.8232051,-10.63490009,-11.38288593,-2.314776897,85.31734699,195.041324,0.071965766,24.94211185,0.0020813,0.009267865,0.148108825,0.02309203,0.028651834,18.96970717,15.90132661,23.56206894,0.173150703,38.72194982,-12.07079506,0.169687793,29.30976954,31.97879588,0.032127596,17.53425178,0.000119736,-17.85468292,33.95311591,28.1203935,30.44369204,-13.94464779,0.890453339,0.767843366,0.82219404,4.394208431,3.29E-05,37.50771196,25.94394231,2.86E-05,245,29.78625488,0.782467484,0.962388217,-0.182337433,18.1197052,2.412593603,0.257724941,0.001967608,3.35915947,5.688559055,2.673800945,56,0.000195845,0.232072259,0.000146622,9.739623844,1.74E-08,0.057586541,0.021748899,2222.733416,0.068782731,2745.092435,9.292051676,-0.002384836,3022.429834,0.003230582,-2.985334111,1.278936863,-92.67425005,0.001477677,0.030845387,0.023679102,5.28E-05,0.495199651,2939.419693,0.000762011,0.008000792,0.026409533,4406.747024,9.333700492,0.620411694,0.076732974,0.000227584
0.000325823,2.579815907,4.085326195,204.6974504,16.16700397,20.30542742,0.00357003,0.032565335,0.279051211,0.019125548,0.016238977,0.057376645,21.58850863,28.95782463,29.66616622,0.002401841,0.307955274,-20.03096962,14.32944012,11.74567223,0.892669737,63.69651413,110.1804826,18.70467377,-1.049740553,-2.151878834,413.9600476,99.94597329,0.488721738,8.590172016,0.008752129,0.019942737,0.134086356,0.099366724,0.07069245,56.06628226,47.47769889,-14.10339355,0.149129957,27.05383769,-12.44795322,0.107999049,28.68603604,25.25995217,0.039172471,109.2344598,0.000280414,-0.875486851,107.2264654,92.94899665,17.77802311,-23.28575897,1.042877078,1.082297206,0.409662604,3.160154104,0.000173668,65.76678711,54.74490214,-5.44E-05,181,23.80478859,-0.077955671,0.287925899,0.020193966,27.06386948,1.791415572,0.321760654,0.001256147,4.936483383,4.031208992,2.712388515,52,1.35E-07,0.228618882,3.06E-05,12.93706117,7.98E-08,0.080110873,0.017339271,1702.809502,0.097559531,2391.291181,6.227136546,-0.003042266,2144.126861,0.00393709,-2.976812999,1.495528817,-215.7639952,0.00209033,0.030242708,0.032441765,4.96E-06,0.30933252,2765.032654,0.000545301,0.005466328,0.010535058,3701.206308,1.507006,0.635894775,0.000891497,-0.00023735
0.000270401,3.602596834,6.989571571,65.21032562,18.03003065,19.931305,0.005554636,0.022646489,0.196805769,0.011007287,0.014127871,0.03302186,38.74254952,22.78507918,21.66346007,0.003013105,0.37431688,-42.26776123,-21.46882629,18.19042778,0.906218946,100.2406387,107.3721308,-23.08837891,16.4460659,-2.504369974,36.9080829,98.31008491,0.01399233,19.26725004,0.002547981,0.015953139,0.051947068,0.034720238,0.012705873,20.23709351,16.91317928,17.92440033,0.040243965,33.51471973,-13.06733227,0.135673687,24.74356787,23.93480229,0.992283404,27.77911874,9.03E-05,8.540081978,20.94414349,17.54418684,37.02171983,14.07796001,1.306060195,1.130644798,1.27221787,8.03533268,7.33E-05,15.73234443,13.14031914,0.00029221,128,12.15162563,0.888745368,0.448601812,-0.61878401,23.76036835,1.661288261,0.190823674,0.008545535,5.044555187,3.6175313,1.961922169,65,0.000121036,0.104445856,6.76E-07,14.54159599,4.73E-06,0.080322388,0.014984857,1495.516497,0.096173763,1945.52064,5.068008582,-0.001192313,2366.470862,0.002781237,-2.986872256,1.471322894,-735.3438006,0.001124111,0.023465609,0.01807414,1.99E-05,0.272912294,2018.352826,0.000663259,0.008388879,0.000843926,1989.590643,0.888672543,0.652274609,0.009096171,-0.01340798
0.002357006,50.50861039,5.677428722,461.0652749,9.124631771,8.0805479,0.01272584,0.050120543,0.447637298,0.024946497,0.023295477,0.074839492,163.5169947,13.30417521,14.72727086,0.00376241,0.693743594,-23.5588131,-9.077698708,14.53777313,0.864732146,106.1470108,156.3051922,-21.76065063,2.471206903,-2.397937536,229.820277,162.4691471,0.502814045,15.8174675,0.009818715,0.018830113,0.178128421,0.049570207,0.134887502,347.3147628,265.1600822,-19.01371956,0.194090441,95.60576826,-35.30052948,0.298718244,28.13593843,29.74295239,0.480687022,136.2560207,0.001420696,-1.870020986,146.4152477,125.8797208,202.0976126,-16.81975937,0.983272374,1.58141768,1.023576975,5.057770252,9.62E-05,62.18401686,44.83573317,0.000105199,251,17.62306786,0.732975245,0.679562807,-0.606996596,29.56799889,2.97349143,0.160374314,0.00638436,5.262904644,4.019833565,2.586014032,89,0.001860362,0.003613517,2.81E-05,8.447937667,7.26E-07,0.109356188,0.03010915,2061.890226,0.115938343,2763.981466,6.412367393,-0.003305558,2914.444433,0.003284438,-2.98312201,1.49159646,-14.43381452,0.001169495,0.0273763,0.019437583,7.00E-05,0.446099609,3042.910021,0.000651392,0.00575704,0.007344404,3389.731395,6.924926742,0.553905129,0.003584872,-0.006710548
0.000135256,6.575280677,2.841717005,115.9661891,20.8076367,19.81764576,0.002927876,0.019049618,0.169767321,0.010329712,0.010762503,0.030989137,46.01155643,27.14762019,27.36530028,0.001601138,0.148781516,-77.31430054,4.108135223,24.20537186,1.292929292,125.5324249,247.1159039,-46.76202774,-22.5893364,-2.507324934,29.19596797,203.8608444,0.964492094,26.59225684,0.002949932,0.036804266,0.069242738,0.006969088,0.004504203,88.66539726,62.25560698,14.85304356,0.099436902,55.86057532,7.298344135,0.092098579,22.09778193,22.20695985,0.373954445,35.2578678,5.62E-05,-12.7147541,48.86410118,34.03469019,34.83748682,-21.92612839,1.218696594,1.291124344,1.346580029,7.217749596,3.38E-05,39.67680741,27.32909614,0.000502502,301,1.106707454,0.908818185,0.939554453,-0.553536117,41.61568069,2.364695787,0.248302117,0.001929687,6.904866695,7.022643566,2.466763496,103,0.00131919,1.527793198,0.000403273,13.23204567,7.67E-06,0.095795016,0.051178642,1988.283839,0.143557394,3821.189377,4.469890951,-0.001247959,3328.609431,0.001618934,-2.994887799,2.128158569,-384.8632095,0.001514603,0.031168925,0.026560741,3.22E-05,0.306094021,2760.608157,0.000564992,0.005664857,0.006896692,3361.199509,0.533832864,0.694405854,0.002328903,-0.000458962
4.40E-05,2.107783709,4.924314499,34.43588032,22.91990559,23.92700918,0.005903227,0.024880713,0.219765713,0.0129406,0.014886782,0.038821799,29.92299141,23.55712917,24.91136522,0.002408548,0.217971377,-16.70713806,12.54924965,11.77678394,0.411692888,61.98831558,238.9552016,-24.32879257,-22.26923561,-2.011661291,43.16874482,198.2248266,0.12102069,21.38940211,0.001895406,0.016946363,0.138696238,0.002297181,0.007580413,34.36131369,24.01803902,16.47563362,0.163052574,43.34022298,0.429951251,0.143126667,30.96268071,28.95929782,0.996629477,30.10074594,4.50E-05,-7.704251766,22.1813359,15.70386864,29.83405026,-6.794992924,0.780521929,1.890808702,0.703689277,4.022392273,5.21E-05,67.5121739,48.67849907,0.000165111,251,33.82095718,-0.036780324,0.418722808,-0.340074897,21.74507523,2.007356882,0.187468261,0.00702698,4.638444901,5.300747395,4.025969505,100,0.001626519,0.202259052,5.79E-05,10.54743924,1.58E-06,0.08001952,0.012177061,3216.872212,0.070202279,3121.929102,7.517755496,-0.002026244,3069.55918,0.002826085,-2.988189326,2.02106905,-1123.965302,0.000963165,0.023963908,0.021492887,8.47E-05,0.371199429,3546.304829,0.000571581,0.004306033,0.0083053,3681.992809,-1.509453606,0.711518168,0.006605757,-0.007314506
0.000122785,1.502508679,2.912639856,42.77341371,17.33100624,17.26635828,0.007020047,0.047041761,0.438860251,0.020055236,0.032351715,0.060165708,59.2489054,16.54878238,16.54878238,0.001731992,0.321754328,-26.73899651,-6.72350502,10.25039482,0.690787435,53.34891129,127.8334753,-34.57655716,-5.109994411,-2.136298656,37.54900452,114.6095734,0.048833609,17.32091995,0.012029339,0.03011894,0.189934,0.022431746,0.008218152,92.6454375,65.46132816,5.70922327,0.082542434,94.83855462,-10.73508358,0.134663612,22.65723823,23.70492015,0.952108681,45.23766287,0.001493932,-19.86977768,159.0702453,134.1472589,45.90936795,-20.22584152,0.768268645,1.031510949,1.18283236,6.111910343,0.001491813,208.907766,153.4365314,-0.000223026,190,24.15974236,1.147240877,0.842585504,-0.14380534,32.0723114,2.591878653,0.282969266,0.004775186,4.470575809,5.97738266,1.790439248,96,0.000518914,1.987412817,0.000492298,10.49919926,1.23E-06,0.059811118,0.008383016,2985.284389,0.078157715,3657.114261,4.102838252,-0.003763152,3066.074779,0.001843355,-2.993985944,1.850527048,-13.38213936,0.001612704,0.030670462,0.022173153,8.24E-05,0.364523828,3281.361714,0.000511986,0.004398588,0.007627317,4020.342809,-7.36298706,0.775586605,-0.003242969,0.014304023
3.96E-05,1.017716435,4.09880352,21.44148794,23.2054885,22.09548276,0.002033766,0.013328264,0.116313905,0.007399988,0.008315508,0.022199963,31.14504281,24.82924113,25.06293999,0.001519218,0.241621958,-27.98802376,-11.09326077,11.33729267,0.883316159,91.20835114,214.6541623,-25.8030014,-8.183704376,-1.590357065,21.01154488,181.1500893,0.128869859,18.85758842,0.002978621,0.016097975,0.134169653,0.990022302,0.052742273,30.58048164,23.4893974,6.531772614,0.137370378,31.39993732,-8.251441956,0.121048227,20.43795356,20.22268144,0.002003303,30.37265729,7.08E-05,4.83424902,25.55890979,19.63332233,19.2742767,-5.927486897,0.90417707,1.483726859,0.785003126,5.279340744,2.71E-05,25.89145905,18.56884997,-4.23E-05,221,18.72656631,0.657638013,0.284084737,-0.081341088,21.7522583,2.479238987,0.221020892,0.002828114,3.948656321,5.845741749,1.904146194,92,0.003947617,0.172009883,0.001219241,7.970865228,9.62E-08,0.085930636,0.032437053,3189.094351,0.106474296,4106.88601,6.265279721,-0.002070557,2396.76307,0.001348085,-2.995981637,2.20269537,-545.5930169,0.001442213,0.02754836,0.02793145,2.08E-05,0.321167111,3788.474547,0.000370983,0.002013103,0.020734392,3355.32254,1.249643579,0.430577725,0.010904182,-0.000877544
0.000360577,3.830740684,6.785060406,26.31513066,26.5939875,24.14695403,0.002373586,0.01427532,0.131672531,0.00678493,0.00859898,0.020354789,20.03882537,25.81610259,22.71825453,0.002528837,0.160245799,-19.05493164,23.35666847,12.8093338,0.573912561,86.03820038,109.2824369,-5.576760769,-23.21636963,-2.469981194,13.38866135,99.63735459,0.121180086,27.29767655,0.002828022,0.01479252,0.108977303,0.174234107,0.030337224,26.05905668,21.71091254,-19.4299984,0.18069911,30.18966885,-3.637239456,0.102429457,28.08228808,26.71529875,0.01655749,33.47133432,0.000137204,22.31573868,25.2345583,20.98811339,21.77300372,7.888042927,0.860900819,1.566114187,0.687412381,4.030361652,9.18E-05,27.23176106,22.68307551,0.001326824,159,14.3246994,0.406690836,0.918090641,0.068252042,24.43608856,2.091345072,0.187356591,0.001822202,4.702122688,4.890808582,3.292750597,43,9.72E-05,0.016304596,2.61E-06,14.35064025,9.04E-05,0.076260619,0.025859449,1629.057485,0.083108277,2172.336408,7.463194024,-0.002566687,2675.477294,0.004113588,-2.973180018,1.945992351,-498.9553388,0.001354558,0.021597091,0.017549137,4.01E-05,0.352243453,2467.374786,0.000692301,0.00752578,0.008004729,3023.924852,-4.702950384,0.722077906,0.000408679,-0.000263675
0.000104576,1.432342199,3.933512449,27.02695216,22.98093469,21.51864213,0.006405178,0.022598838,0.197710066,0.010186948,0.01393672,0.030560845,31.29225165,23.92180317,24.2958175,0.005054097,0.372564479,-10.98724174,14.80491257,7.742383003,0.575013757,83.36432648,121.6137058,-0.497771651,-37.05962753,-2.359256268,22.63482976,109.7278201,0.011731249,25.79223701,0.010003188,0.038553331,0.120313786,0.010091074,0.012920424,56.03580605,45.85156854,-16.76379204,0.193869263,39.54705083,-11.09549618,0.100706793,24.25694474,23.13911767,0.680695891,25.84219777,9.66E-05,15.12535477,51.39344567,41.95340953,38.70353165,8.699350357,1.092280626,0.966766953,0.334914744,2.858815193,7.82E-05,46.12445232,37.55063736,-3.15E-05,124,17.42417717,0.402179003,0.683404028,-0.058368288,29.1571312,2.644477606,0.257801801,0.005090216,5.474808693,5.406619072,3.472020149,55,0.017795086,0.000171881,7.75E-06,13.79835047,3.38E-08,0.075700363,0.019631533,1793.97463,0.093116637,2326.865938,10.9603284,-0.002717609,2935.660916,0.003629811,-2.979716173,2.242045164,-297.4212363,0.001630701,0.029359469,0.022308454,2.01E-05,0.441569716,2676.106182,0.000811645,0.007339446,0.006913539,3474.047971,-2.577437252,0.724390507,0.010041422,-0.004105473
0.000131434,1.679203805,4.718283653,74.4667323,12.15092581,11.15582697,0.009522118,0.04178026,0.364248617,0.023210429,0.025949926,0.069631288,37.0794681,16.49330995,16.31123632,0.007155083,0.594274936,-6.995508671,-12.87133789,12.33996677,0.388045847,40.35271454,126.9632638,-2.180531502,-4.089576244,-1.286369681,30.17728457,114.1996473,0.252015538,15.64191573,0.013180225,0.058516677,0.1162268,0.002832278,0.002762858,104.5838469,72.61288775,20.72653961,0.208767742,69.38420537,-32.96998978,0.199463606,21.52959263,21.63867491,0.949041009,51.36390507,8.23E-05,3.274248838,104.9280047,71.48566063,34.67040391,2.6857481,0.870585084,0.670773923,0.638332009,3.205401659,5.86E-05,78.10692541,52.15638001,0.000647636,400,38.93332672,0.686261475,0.512206316,-0.132463172,21.61843491,3.303073645,0.272523135,0.005368499,4.135212898,5.830564976,3.415711641,120,0.001279976,0.03761034,4.67E-07,6.916822615,9.73E-06,0.068612642,0.013750674,3752.391696,0.064425918,4589.776026,6.21228406,-0.00211882,3303.949802,0.001381349,-2.996163738,1.461561322,-46.120755,0.001343803,0.036830537,0.027628375,5.03E-05,0.523912251,3954.475279,0.000431401,0.002435682,0.006980525,3373.84807,-7.715934067,0.678747118,0.001320245,-0.0258774
4.51E-05,1.666049498,5.100252628,32.03485198,20.96562949,22.68862105,0.003512842,0.023962676,0.209720244,0.010723033,0.015560807,0.032169098,28.83544789,24.04493882,25.14158081,0.004608525,0.33838607,5.288985252,28.62109947,10.9137125,0.616832316,68.3417511,201.0158291,0.077702619,-14.48303986,-1.734105825,29.22178332,171.5087845,0.246925623,21.39470033,0.0028416,0.065034911,0.154915363,0.007071292,0.034783028,33.47328766,24.70612738,-7.48823595,0.17998226,36.81529557,-7.118503094,0.184183851,22.6061964,20.7063412,0.001966039,27.08406499,4.45E-05,9.824234962,31.51026885,23.16547215,35.24911264,2.184235811,1.085713029,1.657966971,0.830244005,6.164895058,5.88E-05,44.99227411,32.83944172,0.000624827,275,45.62878799,0.055119369,0.041396648,-0.172366738,21.33206558,2.014386415,0.53911382,0.02940492,3.970173597,5.740104198,1.890244365,52,5.46E-05,0.215926617,0.078378265,9.707644962,4.51E-06,0.087639047,0.028145384,2804.821575,0.087752517,4100.488646,5.787267282,-0.002629833,2236.742732,0.001450223,-2.995496572,2.153048515,-271.2602007,0.002065942,0.067102738,0.059337441,0.001254652,0.490130603,3198.367113,0.000897244,0.010087784,0.006188872,3826.078568,-10.47321403,0.495267123,-0.006037893,-0.863323579
9.39E-05,3.037548244,5.90149498,18.33165274,27.90809643,27.57784603,0.004119033,0.023562232,0.216012378,0.013310967,0.013685228,0.039932902,20.39784444,27.72426957,28.51129445,0.001011204,0.142013065,-54.3012085,6.26991415,14.92320347,1.081223011,83.75444794,221.1001536,-30.37190819,-31.54814529,-2.017665863,15.45209957,185.8458065,0.460428427,24.55789655,0.002380287,0.019480991,0.100006819,0.083085462,0.068080448,24.74634771,18.49970914,-7.289783955,0.090548716,22.48518921,-2.230064154,0.115823686,26.17755494,23.77246355,0.003821538,14.51852336,3.19E-05,6.25573349,28.47136457,21.10429004,18.98603562,-12.42974854,1.210348725,1.342304826,0.711135983,3.974632263,8.64E-05,29.45955363,20.6319355,3.00E-05,280,23.21374893,0.559369683,0.328241915,-0.232821554,30.47832489,2.260046959,0.183379054,0.003111794,5.698364258,5.485740185,2.783375978,72,0.00014478,0.354155161,5.45E-08,11.75629412,7.23E-08,0.113595115,0.064546242,1760.992506,0.136508136,3715.006241,8.667579549,-0.001582905,2439.706938,0.001411924,-2.995569585,1.946082354,-915.2479101,0.001089171,0.020272013,0.021952605,3.32E-05,0.451962054,3125.038632,0.000516858,0.004352424,0.005249206,3284.661229,4.205963709,0.773129165,0.003256158,-0.002035791
0.000521198,7.316040343,6.936872005,105.168104,7.167038554,8.563793522,0.004523841,0.013380362,0.135262902,0.006430907,0.007589814,0.01929272,83.57154302,27.05755249,28.09127823,0.00197394,0.188671757,-24.63840866,11.8898859,13.66308975,0.660063088,65.32398987,122.0419255,-23.55957985,8.388361931,-2.617172003,54.95896276,110.2797602,0.078312999,17.3921792,0.004012384,0.015818062,0.086500853,0.981042206,0.054632749,107.3518921,86.00481202,-1.318056345,0.182966143,32.59889014,1.14558053,0.118056595,26.79784605,26.72917742,0.142210186,23.41316175,0.000254561,3.272506714,65.26178049,53.58574637,29.45972906,-3.644934654,1.004216909,1.062532187,1.289364696,6.938223362,6.67E-05,31.89322119,25.74020108,7.66E-05,169,15.26244831,0.294753015,0.204720706,0.087032162,24.49348831,1.963027596,0.385129333,0.002901587,5.75181675,5.028398514,2.396639824,45,0.000221484,0.548037994,0.00195323,11.81474711,1.18E-07,0.076901405,0.033477288,1411.569291,0.084511513,2602.794192,6.149417598,-0.001563618,2051.215129,0.003326569,-2.983485741,1.809821725,-231.3001069,0.002290908,0.03380394,0.038311701,4.13E-05,0.258402675,2609.576869,0.000623493,0.008056005,0.012131309,3223.732105,0.472654552,0.673174024,-0.040528473,-0.000502332
6.29E-05,1.873372708,3.677625418,33.44455871,21.98412996,22.05811983,0.003675869,0.017395705,0.155228342,0.008459317,0.010828086,0.025377952,86.38293387,26.41072087,26.45652955,0.001576344,0.177693934,-6.252309799,-2.822956324,9.016332626,0.526602328,54.16960526,208.8197262,-5.119381428,-15.04939842,-1.891371012,33.77339391,176.8825558,0.041738205,23.74964815,0.005784956,0.021545303,0.098725006,0.037022568,0.021425283,47.07151203,35.35142663,-7.92086935,0.176483169,109.0591747,-15.73572254,0.088943891,31.65521413,31.27765041,0.003985667,33.15580953,4.04E-05,-8.71013546,46.33222269,35.04515973,55.33561013,-3.177501917,0.682072997,1.493847847,0.907558262,4.527094841,5.59E-05,57.82772902,41.70800929,0.000992592,309,44.22244263,0.580976069,0.383679092,-0.039872147,22.20489311,2.733824015,0.148326367,0.001639503,4.126832485,4.800349712,2.046292782,76,4.42E-08,0.000214378,0.000182667,10.05030701,7.62E-05,0.066626798,0.006798801,2876.767372,0.06706962,3362.254271,10.84476107,-0.001479177,3124.004548,0.002887262,-2.987695702,2.023984909,-197.4908825,0.000756664,0.016571961,0.012287412,2.42E-05,0.34471944,3689.422548,0.000442543,0.002648019,0.008483102,3950.308263,-0.954155633,0.51481694,-0.00522181,-0.000176477
9.13E-05,2.636269448,5.187520981,28.58002956,23.4347433,23.15665281,0.006288037,0.022443951,0.199464573,0.013519539,0.012530833,0.040558616,21.44847077,25.82167571,26.2712869,0.002495196,0.178731991,-0.371443242,-10.39298916,13.36880398,0.532409489,54.28799438,184.846253,19.68709946,-15.74414349,-1.800804138,21.36589716,159.6231462,0.069355316,24.57230245,0.003027343,0.013045658,0.121470541,0.092831112,0.051047362,28.01802741,21.16888787,-14.84064674,0.319852889,34.54873434,-25.72262764,0.192465633,29.46233391,28.24575557,0.000182555,18.69037821,0.00010962,-6.724956512,29.73539097,22.480346,29.79979065,-21.25769615,0.943534315,1.287591696,0.599662185,4.851070404,2.90E-05,23.26937909,17.29455125,0.000286407,329,34.30397797,-0.422580779,0.074066691,0.201683015,24.9749012,2.415693998,0.296253651,0.008332824,4.478414059,5.303843498,2.152790785,76,3.08E-06,0.512182675,3.17E-05,11.10524916,1.54E-06,0.042138882,0.022055803,2286.951935,0.068238817,3103.239225,4.291632263,-0.001869745,3102.739354,0.002633912,-2.989610226,1.647743225,-264.2405025,0.001749318,0.030131649,0.026325675,1.93E-05,0.476532876,3116.965521,0.000652388,0.00590986,0.007156805,3448.602357,-1.971644385,0.630175292,-0.009016423,-0.14047411
0.000378991,6.765589608,6.108334541,57.14646149,24.13552761,25.06640151,0.002502185,0.019038751,0.167347553,0.008899829,0.012322689,0.026699486,29.64776198,28.88711221,28.02686401,0.00255062,0.549275254,-9.706292152,-4.532731056,13.28560448,0.770353258,88.70700073,174.6217902,-4.345573425,-21.25422287,-2.07916832,26.188445,151.6369211,0.390587527,28.54353884,0.002683004,0.0082939,0.111926354,0.438756853,0.161641762,50.19577136,37.8719808,-11.55943298,0.142861515,122.426832,3.070534229,0.162634403,32.36195343,30.41974818,0.001637909,25.75233665,6.18E-05,-8.71781826,47.85548634,35.8409442,92.59295636,-14.14982986,0.914850354,1.828128576,1.284251928,8.688303947,8.41E-05,38.78413983,28.46791706,0.000243523,315,29.76773262,-0.186978772,-0.025854934,0.037455205,25.31342316,2.203186274,0.283782184,0.00135875,5.044787407,4.824265003,1.836838484,46,0.002238302,0.000181123,0.018660529,11.05750972,2.41E-06,0.07581989,0.016195182,1848.762294,0.094956433,2793.321893,3.411839101,-0.00170674,2953.228509,0.004386487,-2.974381189,1.685822248,-359.8418839,0.001240404,0.023763765,0.022200372,6.32E-06,0.379666328,3263.504583,0.000652116,0.006075568,0.015122617,4989.130071,5.029911519,0.552210808,0.006186543,-5.60E-05
5.25E-05,1.240859391,10.19224739,32.41188836,23.73913786,23.53824192,0.00468698,0.02442083,0.211717881,0.013710114,0.014014278,0.041130343,32.41188836,23.73913786,23.53824192,0.002763944,0.211717881,-33.21310043,8.399391174,15.30845642,0.381556869,80.5169754,161.802723,-33.21310043,-9.955571175,-2.34106946,32.41188836,142.1654214,0.099464402,23.73913786,0.009129544,0.022698389,0.152968943,0.335252494,0.277452439,193.0448003,149.4828904,18.16744232,0.067861341,85.19823314,-10.36479568,0.210994467,31.81013807,31.9113196,0.002649521,63.38797706,0.000363476,-0.291941732,128.1474647,99.93977844,39.18935209,-7.069315434,1.148233652,1.045614123,1.076651573,5.597420216,0.00018732,52.57138796,39.18935209,-0.000107969,347,24.72301865,0.469078273,0.558516324,-0.217073157,33.59704208,2.51288271,0.284326404,0.002506037,6.324857235,4.578197479,2.411056995,63,1.19E-06,0.021311214,1.768435804,12.74952575,2.42E-07,0.091566997,0.008440774,2010.042381,0.091566997,3318.045167,4.638710743,-0.002479243,3274.062242,0.002606927,-2.989578056,1.537019849,-55.8907393,0.001701354,0.027437214,0.022116369,2.91E-05,0.374892414,3273.717442,0.000554127,0.004137584,0.010049723,4145.482614,0.448659021,0.674267054,0.00926135,0.00173135
4.44E-05,1.804633651,4.257826328,36.93728659,21.92152738,22.17997206,0.002466018,0.020716725,0.18024823,0.01157935,0.012975808,0.034738049,28.79174183,24.59651659,24.8343424,0.001424997,0.189609094,-50.53866959,-16.90318108,23.57113266,1.008403063,83.49182129,271.5313037,-51.53482056,-4.021858692,-2.607740641,36.24475682,220.8929301,0.252759414,24.75789881,0.004021018,0.014862371,0.106329776,0.004406756,0.011706246,40.14944169,28.95200312,28.80128479,0.103778221,39.79973939,-16.35645294,0.149250522,25.19948808,24.70631214,0.406817764,24.91747632,4.26E-05,1.836894035,55.18090016,39.51829203,23.64519805,-33.25536346,1.137460589,1.465462804,0.743780255,6.271598339,2.20E-05,42.03152551,27.92531794,0.00033867,270,22.29246712,0.640553057,1.46628952,-0.422249943,32.64421463,2.183583021,0.184052974,0.001348111,5.841920376,5.321420193,2.232983828,100,0.00017884,0.202996546,1.81E-05,11.24425211,8.03E-06,0.103360817,0.03090224,2613.738964,0.1029186,3497.715342,6.672363223,-0.001625309,3028.744366,0.00233883,-2.991238679,1.859273553,-295.0266386,0.000812008,0.01680965,0.01246634,2.57E-05,0.427926242,3352.882931,0.000539718,0.00373767,0.008201179,3824.482462,-9.507036776,0.823539674,0.001732868,-0.000356133
2.68E-05,1.167161114,3.550750256,26.06289013,24.04498895,24.69595631,0.007710676,0.045354872,0.401251311,0.024922415,0.028070787,0.074767244,53.10853956,20.19110843,20.40094063,0.00323175,0.382847739,-11.32388115,-3.320801258,12.44180202,0.500543475,43.31625366,239.6802864,-7.994363785,-11.78270054,-1.788088918,25.61868485,198.7662545,0.010724211,21.23679486,0.00426686,0.021632025,0.177062511,0.002100103,0.00330758,31.61793795,22.54695734,0.6650365,0.225822642,56.31708486,-6.132525921,0.271225095,29.8634151,30.42116748,0.228094876,30.32336059,3.11E-05,-8.671300888,35.41170325,25.12452625,31.77964905,-0.588884711,0.925618291,1.296246409,1.693183422,6.77679491,3.44E-05,33.81620138,23.40576298,0.000146381,266,31.84958839,0.654692352,0.614679456,-0.275963992,24.23943138,2.157077551,0.159763858,0.001122594,4.397316456,5.780346394,2.490524054,100,6.23E-05,0.173301413,2.80E-05,8.326994867,1.87E-06,0.057025473,0.010925526,2901.697811,0.068120335,3720.491182,7.193723277,-0.002604286,3183.262712,0.002665383,-2.98985775,1.680733919,-754.3246745,0.000753258,0.014022196,0.011089256,5.56E-06,0.346342742,3631.071731,0.000502772,0.003564994,0.0180864,4785.578969,-8.420836974,0.612862587,-0.00311541,-0.000199886
2.35E-05,1.245674434,2.962476969,24.27839278,29.18125141,29.12900378,0.002715736,0.014195941,0.123724952,0.006627083,0.008260059,0.019881249,24.27839278,29.18125141,29.12900378,0.002883114,0.250500232,-57.67292023,-14.78285027,15.045784,0.615495265,90.88791656,238.8506068,-17.16968155,-12.98774147,-2.415453911,24.27839278,198.026694,0.032113778,29.18125141,0.001866975,0.012403485,0.157462075,0.004841496,0.009024384,28.62933125,20.36793566,7.281476974,0.124333777,49.6832377,-22.69268417,0.140659988,27.60848903,28.50402485,0.267062038,22.58736754,3.30E-05,-14.98003578,38.55674936,27.18498838,30.42492321,-10.42828846,1.054022431,1.169054389,0.760308743,4.551423073,3.30E-05,38.55674936,27.18498838,-0.000110336,312,16.01968956,-0.267382026,-0.002378764,-0.106736772,23.9211216,2.203692675,0.257565707,0.008739957,4.937038422,4.949465752,2.528817415,83,8.70E-06,0.069959514,2.12E-05,10.45021079,3.48E-07,0.052456401,0.013141719,2093.343985,0.111901052,3057.595577,7.746732855,-0.002400794,2899.244784,0.003034657,-2.98680612,1.924534559,-477.8526294,0.001250435,0.023810145,0.017422382,2.78E-05,0.417555869,3742.958306,0.000543137,0.003330082,0.010670742,4722.463676,-2.83469204,0.539325356,0.043851357,-0.014710912
3.69E-05,1.525485364,3.102784157,21.18289404,27.54202604,27.95090546,0.005182229,0.023579586,0.205281977,0.013724163,0.014529569,0.04117249,21.40153103,26.06849647,25.40554037,0.001929199,0.166268669,-38.02759171,22.98127747,16.22887421,0.772753537,66.00846863,221.7033586,-40.87685013,-17.27853012,-2.657701254,18.05915176,186.5281976,0.373950557,26.53377592,0.002177504,0.012640195,0.146229386,0.004256407,0.00149166,23.38090345,16.95384022,5.436068535,0.223844737,33.53849169,-6.580161572,0.150402009,29.76205406,29.29092823,0.002580424,18.21997034,3.18E-05,-7.765625954,33.44361746,24.15888895,17.6587211,-4.552586079,0.881667912,0.817031026,0.83849442,5.957556725,2.16E-05,24.37031292,17.30283246,8.72E-05,243,15.97765446,0.49303782,0.615923524,-0.124530427,35.45397186,2.532254934,0.284078151,0.004162874,5.449625015,4.472537518,1.86445415,66,0.001480249,0.379296791,0.006156527,12.27553789,2.52E-07,0.093326705,0.020666301,1674.095303,0.090224935,3380.235892,5.793545657,-0.002382411,3068.657269,0.002100981,-2.992121186,1.910321236,-490.8050196,0.001825833,0.027375562,0.024567079,2.60E-05,0.414816082,2971.326226,0.00053446,0.004236778,0.007426461,3407.834124,1.011385725,0.737849653,0.075389741,-0.002396532
2.68E-05,1.008698839,2.880093336,20.54865306,25.57107949,25.23610312,0.003272875,0.022616055,0.197108144,0.01363301,0.013150582,0.040899031,28.338609,28.00214129,27.83218091,0.002008805,0.269886704,-24.42867279,2.293619633,14.51391506,0.823643506,64.97499847,230.6739496,-27.03627586,-22.07169151,-2.050477743,22.71641006,192.6165199,3.329859206,28.54394029,0.004137715,0.010917105,0.114853993,0.008063783,0.002891961,34.93300942,25.29119059,-7.129520893,0.1807722,27.95644125,-4.764500618,0.070768431,25.95850657,26.18721678,0.01558198,16.8813434,2.01E-05,-0.379470348,26.84070134,19.44707059,27.58589914,-13.62354565,0.976713896,1.818512201,0.766912341,5.244984627,1.81E-05,27.12447375,19.00257145,0.000173877,202,10.52684212,0.357520998,0.782146037,-0.491205335,28.82759285,2.053554535,0.300556451,0.00358629,5.243472576,5.635544777,1.927106619,76,0.004107492,0.03661976,5.47E-07,12.42955576,9.37E-07,0.110279179,0.029763211,2006.275492,0.112062756,3548.739478,6.617249152,-0.001921254,2282.037414,0.002393671,-2.991018561,1.834884644,-1314.541472,0.001784663,0.025916979,0.019343909,2.56E-05,0.386020601,3058.621271,0.000461702,0.00324266,0.009673746,3291.705294,2.023716295,0.619210243,0.00880702,-0.001448372
0.00011957,4.309605083,4.090113163,33.4541111,27.04169551,25.08359743,0.002445329,0.02132882,0.187003974,0.012289385,0.011911167,0.036868155,30.31361123,28.62857275,29.56018292,0.001313682,0.136385574,-32.2958107,-12.62105465,14.55200291,0.821510255,68.23206329,217.2271847,-40.85295486,-9.831314087,-2.680550337,28.46466263,183.0688629,0.272866581,29.05541697,0.002297726,0.009646059,0.142016962,0.00823735,0.024554105,38.23638382,28.10546043,7.577427387,0.143740058,38.59474369,-0.465359688,0.136049569,30.34172549,26.91739212,0.004073346,31.6648697,5.77E-05,-13.49185658,52.81269124,37.72322678,25.37292604,-24.49685669,1.217583895,0.890525818,1.231309891,9.968677521,6.58E-05,39.13451337,27.85597506,0.000222058,416,4.743281364,0.026642453,0.271952748,-0.066763453,30.87251854,2.90871501,0.233326629,0.001279276,5.098330975,5.555122852,3.191471577,78,0.002715818,0.01540383,0.000382785,11.39532619,1.85E-06,0.099598557,0.019668743,1880.134329,0.076618047,2515.608057,7.395316273,-0.002271563,2984.812292,0.00298423,-2.987025882,1.983748794,-313.4726467,0.001450441,0.022655657,0.020961287,6.04E-05,0.422439873,3385.501788,0.000424947,0.003147759,0.010056407,3761.178345,6.975210681,0.762507141,0.130447188,0.001930601
2.84E-05,1.76486976,3.440999269,37.41184249,22.81402597,23.21424441,0.002704809,0.02364982,0.205694058,0.013515691,0.015354147,0.040547074,41.99518094,25.78219897,26.28719714,0.001647634,0.224606791,-53.95515442,-13.2140646,10.76821327,0.639282763,69.91866302,257.8240282,-57.55160141,-4.086308002,-2.265090704,37.41184249,211.3216019,0.974903486,22.81402597,0.003454165,0.011150949,0.133167371,0.005315877,0.005161928,53.42829682,37.86913257,5.704890728,0.206832409,65.44612026,-26.01305771,0.196580604,27.11129941,26.90157541,1,27.49504895,6.10E-05,6.928718567,38.29184672,27.05244452,324.4544652,-6.016616344,0.860733628,1.022623301,0.797923863,5.266531467,3.54E-05,49.035559,33.26920861,-1.19E-05,305,17.34048271,0.801864326,0.996128678,-0.344928712,25.92067719,2.238766193,0.27583617,0.00415035,4.810698509,5.073812008,1.876044989,102,0.000618972,1.291738736,2.75E-05,10.34419702,5.13E-09,0.121174779,0.038378827,2553.336293,0.117381358,4277.322252,7.221514126,-0.00232538,3065.676654,0.001729958,-2.994545939,1.846995831,-487.7467772,0.001340335,0.029939348,0.02784618,2.47E-05,0.399201274,3460.594525,0.000522442,0.003544104,0.003013966,3133.070139,1.021474247,0.634497166,0.001943003,-0.00630604
7.16E-05,3.142624578,4.50966835,52.95793615,26.68039523,26.2215845,0.002273539,0.013172324,0.115752996,0.007157636,0.008346762,0.021472907,43.41841622,29.44866587,29.68576696,0.001053586,0.125434812,-43.3554039,-4.377941132,16.745924,0.8773247,73.54825592,240.183572,-47.68309402,-21.80282593,-2.257534981,38.8344282,199.5260588,0.789621081,26.8472439,0.00255503,0.012534802,0.141453877,0.030285113,0.002383024,70.69972091,50.74247734,-1.864252687,0.211710081,32.70408722,17.81897926,0.102297425,27.41953133,29.18859547,0.992552638,29.64940401,3.17E-05,-14.18509483,40.26018966,28.9845604,22.31222854,-18.94626427,1.320245624,1.270899773,0.824777722,6.895298481,4.69E-05,52.958244,36.93572992,,,,,,,,,,,,,,,,,,,,0.128458978,0.028915072,2077.585949,0.123146239,3209.153507,5.877316845,-0.002299664,2937.001156,0.002230129,-2.991078088,2.284080744,-469.653943,,,,,,,,,,,,,,
0.000112089,1.561851674,2.480356932,37.21177538,21.62812628,21.85629413,0.003710776,0.02664838,0.232689825,0.013291061,0.016049375,0.039873183,39.07338848,23.46802883,23.07456491,0.002408232,0.418794011,-14.89390755,4.36739254,14.86366653,0.935227334,90.03203583,126.8555976,-28.08616257,-5.12459898,-2.183936834,34.58814595,114.075281,2.083124359,22.31404768,0.004457281,0.028017147,0.049705364,0.03696765,0.01512257,41.40815155,33.95920352,-8.783156395,0.245051548,51.63653706,8.720275879,0.081873216,20.81763488,20.61266328,0.992353261,46.24102664,7.36E-05,12.92487907,37.93408542,31.050415,48.35453664,11.75699615,0.880681336,1.771144271,0.490519613,3.273714304,7.27E-05,37.77141871,30.65148795,0.000415819,145,20.41039467,0.377104968,0.909632504,-0.074144647,21.90110779,2.188235998,0.202203646,0.006674376,3.974112511,4.186249733,1.283613443,49,0.000587157,0.014298147,1.67E-05,12.27326081,9.44E-06,0.099706665,0.025842091,2036.526055,0.098389653,3533.659075,5.270926275,-0.001459519,2549.860337,0.003233795,-2.98516206,2.142763853,-356.0124742,0.001395462,0.022430647,0.020631639,1.88E-05,0.311267078,3044.133528,0.000590281,0.005652824,0.01128462,3579.55684,-5.845082941,0.700955093,0.008204417,-0.006040149
9.28E-05,2.789000213,6.298659325,32.96071738,20.54602298,21.58934187,0.00668896,0.034242847,0.289839113,0.01952803,0.020495194,0.058584089,37.14137269,21.19441084,21.67793491,0.002951141,0.232909828,-48.10295486,4.766572952,16.85600471,0.613532901,92.51551056,171.6785584,-55.87418747,-1.035940766,-2.675717115,118.1543712,175.6116377,0.556530974,19.4434178,0.003789996,0.016507368,0.107320644,0.007191074,0.005806303,48.12968695,34.74750556,-17.29185104,0.151031464,45.74287458,-15.91949368,0.186575219,24.58610824,22.90821593,0.995292783,26.8739145,6.20E-05,-12.93915081,40.48028541,29.28923826,35.50285311,-19.82623672,1.072240949,1.487289786,0.86072582,4.796371937,2.75E-05,36.44858262,25.35775615,-0.000165123,465,21.26345634,0.205740035,0.189691737,-0.062502109,29.70049477,2.92222023,0.222779915,0.001542266,4.978112698,5.029922485,3.124860525,79,3.88E-06,0.011585436,0.604927531,11.0759554,9.27E-07,0.133335818,0.017201567,2258.936202,0.116288825,3401.681363,4.958745082,-0.001871326,3311.962374,0.001329725,-2.995488413,1.694186449,-374.2912738,0.001359298,0.026190292,0.023567937,1.13E-05,0.357923269,3277.819892,0.00035654,0.002322844,0.015484951,3690.033694,-0.871529953,0.451742053,-0.003523053,0.000495335
4.33E-05,0.646693311,4.090114594,21.35183843,27.29640615,27.03446304,0.015134472,0.178569048,1.649557538,0.083132735,0.116458808,0.249398206,382.5705205,5.344355644,3.901686809,0.009109502,0.396837015,4.793509007,-0.68727231,15.08063316,0.588800073,86.22885895,127.3681726,19.34866333,-31.96926689,-2.138260126,47.96589804,114.5221119,0.074593539,24.1129814,0.003085994,0.011902415,0.084877357,0.002839002,0.002773879,28.82014784,23.31464829,-10.43999481,0.119268596,97.79487868,27.94068718,0.102645345,18.02857402,19.12656372,1,20.56083883,0.000134151,2.3195858,67.99617707,54.87437991,296.7656234,5.200306416,0.938754201,1.197408438,0.926579714,7.817583561,7.85E-05,32.14275546,25.92351881,-0.000329386,279,25.95606613,0.199874476,0.513867319,0.123135313,24.30649757,2.151397943,0.250939608,0.002416768,4.780715942,4.194375515,2.538247585,59,1.93E-06,0.000206944,0.084768842,12.32012662,5.68E-06,0.072547842,0.019698843,2339.847613,0.091854502,2890.012736,4.336517642,-0.002314547,3025.87256,0.001586595,-2.995137058,2.063092947,-168.1604938,0.001214401,0.017487673,0.015095173,9.79E-06,0.325716197,3144.572021,0.000390972,0.002627094,0.005877262,3435.516156,0.979791676,0.551624417,0.058465804,-0.007317486
0.000405867,7.02194093,3.236186028,73.06043432,4.610898327,3.326300611,0.003635427,0.058962447,0.561186103,0.032546022,0.036735346,0.097638066,28.68958644,16.49786035,15.81345175,0.007334084,0.52783661,-2.030452013,36.66796875,13.98044777,0.543702543,109.1297226,147.0181664,-1.721023083,-19.29102707,-1.382617593,28.68958644,130.1982841,0.950037579,16.49786035,0.092175305,0.123477636,0.078447402,0.016447924,0.009164203,44.47207572,35.57672672,-4.273374557,0.199091464,78.6643752,-4.685416698,0.099903323,14.93100279,15.66072456,0.004746878,29.24462278,0.001858132,2.35509944,596.0340252,418.2093969,33.7751882,0.029360389,0.89546597,0.838947773,0.970710337,5.925829887,0.001858132,596.0340252,418.2093969,-0.000109369,174,32.09262466,0.496945083,0.564532638,0.052896407,18.49427986,2.109689713,0.232131183,0.00264544,3.102561235,3.962328434,2.243990183,71,8.46E-05,0.039070771,8.10E-06,8.443872551,8.18E-07,0.108073424,0.013038307,3150.423839,0.112250845,3882.083344,5.594655062,-0.001973735,2896.391868,0.001405323,-2.995162266,2.474663496,-295.5863009,0.001217817,0.021657553,0.028360652,3.21E-05,0.360862166,3801.295888,0.000603384,0.006351918,0.003419549,3343.610608,2.728100175,0.40320614,0.000113281,-9.54E-05
0.000158414,1.460724127,3.0625844,36.3328085,19.4947836,19.8245404,0.001830079,0.01757248,0.153503875,0.009407337,0.01119773,0.028222011,31.80220319,27.17470267,27.04763876,0.001103874,0.212339342,-40.5723114,-13.40366268,12.02303219,0.734767318,72.17508698,138.9684982,-43.00394058,6.841752052,-2.854293823,27.36926719,123.8273183,0.250396674,28.16179763,0.005260372,0.019168918,0.155719504,0.024125738,0.023455383,38.55371869,32.75540709,1.919074297,0.114722833,32.67042753,-15.78513527,0.109452918,27.01402966,27.4200768,0.005099754,22.24106196,0.000105415,21.75494766,30.9565902,26.21641546,29.52994191,2.965404749,1.039717674,0.896485627,0.802416921,4.578754902,5.29E-05,25.06068613,19.80145226,2.52E-05,131,17.4758091,0.991664886,1.34808135,0.043765537,22.8521347,1.962734938,0.245188847,0.003098813,4.528310299,4.203609943,2.10510087,51,2.10E-05,0.39200118,9.71E-05,12.46153708,3.00E-08,0.103729361,0.02370937,2060.887665,0.091526393,2610.3222,8.683610067,-0.00308685,2505.131222,0.002715936,-2.989438482,2.51710248,-527.4561624,0.001320564,0.022261545,0.017047195,2.57E-05,0.33830151,2835.006875,0.000633448,0.007128331,0.002884497,3121.465233,0.660237107,0.448842943,0.003742346,-0.001490019
7.05E-05,3.040262005,2.483258724,46.12216671,25.60731498,23.35830714,0.002181528,0.013243272,0.113243148,0.007307801,0.00818627,0.021923404,31.56424102,30.45850587,28.41423843,0.001530324,0.200686291,-58.70991898,-5.187269211,13.69159031,0.749165416,65.82971191,137.1035004,-53.82413101,-26.81013489,-2.54935503,19.66773377,122.4325994,0.331477555,24.01365785,0.002786861,0.017328538,0.093991086,0.048775963,0.01121729,61.41869897,44.1399247,-4.332131386,0.161862448,51.46738351,-2.705913544,0.146432117,29.24039706,29.36503956,0.397327781,53.47032523,6.67E-05,-17.60093307,64.5234829,46.38536081,41.44247102,-36.75912094,1.277704954,1.322394729,0.670282543,5.73602438,3.24E-05,47.41142206,31.4972674,0.00050426,318,-4.573044777,-0.266113162,0.403852046,-0.058509141,28.53372955,2.460442543,0.195793584,0.004191343,5.436209202,5.425753117,2.854103565,111,0.009661373,0.116879395,0.00020413,12.27302645,2.56E-05,0.12166771,0.02087816,2158.860096,0.128240201,3349.703585,4.18411643,-0.00155312,2374.339241,0.002255807,-2.991506214,1.849780321,-410.7467382,0.000928701,0.017592831,0.014401879,5.40E-06,0.412197202,2996.154384,0.00049315,0.003647326,0.011346336,2929.589576,2.668824041,0.60073024,-0.00171381,-0.001741025
0.001008387,13.66815465,4.284322739,120.1762288,25.86336085,25.61055211,0.008910618,0.100750591,0.877489723,0.054801059,0.062089193,0.164403178,98.23945015,14.12116504,14.37104728,0.004858326,0.717612975,-12.72472286,8.149950981,13.4989624,0.828858852,83.51393127,143.5867185,-0.80821681,-25.25309372,-1.687351704,50.54913292,127.4402038,0.108397117,16.4911686,0.00546857,0.024237402,0.103060134,0.168436676,0.178474128,73.24620523,57.28530538,-24.62286758,0.171799839,155.9245235,-12.73691273,0.141440794,26.65232733,26.73733393,0.007613181,77.07845514,0.002782631,7.783473969,138.8030053,112.3387854,30.96461795,-7.475691795,1.221167803,1.806198239,0.660602152,4.813677311,9.59E-05,40.63845904,31.41542495,0.000101353,244,27.30419922,-0.295081258,-0.007302307,0.28389594,27.11780739,2.065122366,0.273750126,0.002394184,4.875211239,3.772781849,2.838990211,46,0.010089645,0.002334309,0.984799281,11.78766067,4.74E-07,0.073892335,0.026437303,2198.468265,0.100626208,2240.001544,5.590733098,-0.001674542,2119.676697,0.00351291,-2.979428834,2.10952878,-21.98193781,0.001494744,0.020717483,0.020572916,1.23E-05,0.344270349,2785.942957,0.000594067,0.005887116,0.009892133,3347.676869,1.098115471,0.675851345,-0.00449884,-0.000583898
7.88E-05,2.079053035,2.835789919,37.18937782,21.10153277,21.21036883,0.003406842,0.035686046,0.31535747,0.017480521,0.021500187,0.052441564,35.41483485,24.33799053,25.87062,0.001665091,0.285579774,-0.623983562,31.23030472,13.16846085,0.712310791,53.28684616,205.9413333,16.62669945,-18.28612518,-1.418914318,26.12934993,174.8485467,0.059226001,21.52078504,0.005878879,0.085522528,0.106835403,0.714732647,0.225479081,47.34675056,36.27560691,-21.37012863,0.176806003,60.72289723,-4.76972723,0.291894704,24.52078813,23.08860098,0.000868079,24.6815236,7.86E-05,-8.148180008,40.83449021,31.26183362,25.68151084,-15.28083324,0.725410283,0.742211699,0.796747148,4.809307575,4.32E-05,29.03731348,21.10087316,0.000379958,315,27.91809845,0.697908223,0.726861954,-0.154989496,21.32364464,2.953843594,0.535338342,0.006248818,4.10970068,4.97079134,2.81379199,84,0.004853639,0.450638291,0.004021107,9.250407496,1.54E-06,0.058102378,0.037901722,2555.611463,0.079144386,3187.163699,6.428901274,-0.001803696,2354.150313,0.002303592,-2.991795941,1.071433187,-307.4056071,0.001958795,0.040929928,0.03718758,0.000131955,0.574787557,3193.093731,0.000696118,0.005688314,0.007785896,3820.355844,4.042595979,0.655225217,0.014441104,0.067349095
0.000199573,3.107961685,3.932396889,40.6806768,18.62395458,18.83401082,0.004637677,0.032505389,0.282256641,0.017351537,0.020447743,0.052054611,20.38149053,21.01520349,20.44625469,0.002759253,0.282256641,-27.83792305,13.67567825,8.128872871,0.263325006,44.57085037,144.7229708,-27.83792305,-18.21200562,-2.598603725,20.38149053,128.2264178,0.022083093,21.01520349,0.007542355,0.015070241,0.152520388,0.031727262,0.014656153,52.30263222,42.48111192,3.784928799,0.133382931,44.61656303,-6.230041027,0.137756407,25.12031267,20.3675781,0.204716429,35.21417269,0.000188867,5.646352768,36.34186533,29.45690096,27.0361058,7.980249882,0.726032317,0.6268875,0.904500663,4.908076286,7.53E-05,34.11908179,27.0361058,0.000204366,193,9.291176796,0.442361742,0.88423574,0.077462479,31.22576523,2.411697865,0.161526829,0.001606548,6.209895611,4.349428654,2.184746504,62,0.000431231,0.385437438,4.00E-06,11.14302827,2.98E-06,0.049164319,0.007025596,2012.37837,0.049164319,2633.028449,8.828485596,-0.003868977,2186.549749,0.003332712,-2.983107957,1.525810361,-350.667218,0.001151307,0.020511979,0.016892739,1.29E-05,0.385106653,2964.960655,0.000574912,0.004894232,0.005327169,3440.218524,0.064831238,0.460089624,0.001601259,4.29E-05
0.000215259,2.523565345,4.858357906,41.18582624,23.25723611,22.89345555,0.004583042,0.018604844,0.162830564,0.009808704,0.011369983,0.029426111,19.52084336,28.98340393,31.74607608,0.002925229,0.235319245,24.10367393,-12.09551525,23.77643776,0.756837904,74.19262695,146.0809471,-12.88064384,-23.42368698,-2.410806656,23.14178789,129.5909647,0.152740148,23.14258418,0.006749458,0.01185117,0.113214023,0.701242924,0.158921495,39.31626001,32.79658409,-16.59205627,0.186345413,27.22065442,-10.74072742,0.14812237,27.06390041,27.36855953,0.005164546,23.76605068,0.000105607,1.453381419,32.88903399,27.35984521,19.73142181,-2.149967909,0.927589774,1.751634598,0.596753895,2.936765909,5.87E-05,34.45430538,26.89537751,4.46E-05,145,30.81628799,0.827462435,0.546160102,0.074636847,21.78843307,1.724371672,0.329095691,0.003176604,4.485224724,4.923049927,2.761354446,58,7.11E-05,1.220494565,2.32E-05,11.68109285,5.75E-08,0.0819824,0.026978778,1565.754001,0.078368578,2150.435524,9.20678368,-0.002182963,2081.252493,0.003615267,-2.977886458,2.099363565,-416.4605831,0.001996975,0.028801097,0.030481275,1.62E-05,0.329354852,2461.471285,0.00082235,0.011828571,0.003780616,2617.94578,4.724255887,0.815411925,-0.014947307,-0.001468264
9.76E-05,0.903110851,4.631091118,37.12757086,16.60495006,15.08591251,0.002057204,0.01912059,0.164621169,0.010453938,0.012030207,0.031361813,20.95993206,28.06452167,27.74770773,0.001444254,0.170424786,1.742518544,-2.022759676,11.45636749,0.531958044,73.31968689,99.86546338,1.549259424,-16.61058807,-2.066559076,21.20213942,91.82015767,0.142017932,20.74750307,0.006960317,0.03768751,0.154231787,0.055096272,0.028688746,41.05883892,34.83071996,-6.962697506,0.170024633,29.57961861,-3.788724661,0.185230732,25.69284066,23.08672867,0.01001628,14.31950905,8.50E-05,3.398004055,37.65387771,32.00521171,22.22463172,-8.995574951,0.995933294,1.126095295,0.910246849,7.160881519,6.59E-05,21.12039507,17.87190605,0.000248905,133,27.64131165,0.502141714,0.284410983,-0.235013768,23.74931526,2.88170433,0.134567216,0.003848906,4.475406647,4.862637997,2.523507595,42,0.000211253,0.236173562,8.13E-05,11.58616005,6.72E-06,0.088661322,0.017677151,1708.05803,0.085168625,2909.585382,4.914911134,-0.003568388,2040.134328,0.003476073,-2.983030899,1.842020035,-1026.00168,0.001029698,0.016425056,0.012526238,7.30E-06,0.398029417,3269.402794,0.000580118,0.004708595,0.006330661,3390.661284,-10.74453476,0.587010264,0.008550668,-0.001512475
0.003123423,216.632203,3.933860779,1040.636482,4.040376361,9.23014939,0.048389417,0.195939602,1.690437137,0.086869321,0.127487474,0.260607963,450.1074308,3.889714579,5.666861292,0.023139281,1.756729776,15.04658318,2.640503407,9.529504776,0.275207311,113.8282318,142.2851837,16.95857239,-18.76120758,-1.475386858,157.8850827,126.758463,0.021887101,5.067654306,0.058382517,0.1035384,0.105042525,0.193210647,0.228130147,282.0905606,233.4080013,-35.62615967,0.270733774,238.3322043,-11.89354324,0.188918889,10.82913471,10.38627718,0.107327059,194.4361721,0.000396663,-8.194336891,251.798158,207.75614,455.0047661,-10.01065731,0.856595755,0.942708075,0.722496867,5.715549946,0.002068832,144.0667935,115.6285778,0.000161287,165,24.98967934,0.332937449,0.375503242,0.048417512,26.01441956,2.434767723,0.136325404,0.000813378,6.143182755,3.15553689,2.440061808,46,9.02E-05,0.000116061,0.097387355,7.468157677,4.11E-06,0.094747754,0.009168573,3650.401896,0.098643114,4465.698749,6.199664916,-0.002242683,2366.347137,0.000987461,-2.997178437,2.486489296,-18.32456686,0.000977878,0.015498335,0.013869148,9.26E-06,0.23438558,3672.67371,0.000311233,0.001733218,0.009632106,2896.939968,3.091741727,0.534384966,0.000218489,2.63E-05
9.46E-05,2.063004849,6.722278595,16.72003242,27.20967734,25.45279445,0.003081588,0.024617281,0.216798929,0.014096736,0.015529996,0.042290207,28.23728755,25.68933787,26.22260021,0.00080375,0.152914461,-85.99606323,-7.563596249,17.47660446,0.773210824,94.16179657,170.7352059,-44.92028046,-11.06074047,-2.219739676,16.76188058,148.6866359,0.42660585,23.45825155,0.001535539,0.017772238,0.134225041,0.508155644,0.216460884,22.49326536,17.59704022,1.961365581,0.261137605,45.69335218,7.264347553,0.168201789,27.99968951,27.81781339,0.004574328,18.31712641,5.72E-05,-53.60591125,19.3592148,15.21887942,20.59896132,-21.47089577,1.400434971,1.627247691,1.395207167,9.133925438,2.97E-05,18.68536014,14.28619064,0.000399154,254,28.99728203,1.082615972,0.707378864,-0.31380403,37.92762375,2.03272295,0.188680157,0.003699561,5.840941906,5.626027107,2.064961672,65,7.43E-05,1.218987521,0.00153696,12.08701926,1.01E-05,0.101513628,0.045193091,1820.29128,0.1590116,3148.699211,7.413856214,-0.001995867,3155.948983,0.001742881,-2.994170322,1.85116756,-1223.816755,0.001255771,0.025507761,0.024403412,2.55E-05,0.454246163,2823.129318,0.000610824,0.004827419,0.007583972,3201.994063,3.021747582,0.764708757,-0.000290958,-0.001418007
0.00013826,1.688712219,3.032408714,37.32611372,16.25021807,17.32429418,0.021128744,0.081127599,0.796479554,0.041339546,0.052665184,0.124018638,137.3391779,12.35316173,13.62847353,0.014553527,0.69328959,-1.547177076,11.34829807,11.65946102,0.48101899,81.64614105,131.7039052,-13.95323753,8.34509182,-2.186591864,55.15730281,118.4301622,0.026244132,12.67162415,0.006549147,0.04001033,0.047386311,0.044697482,0.05656638,63.39228894,52.59652452,10.49748898,0.096454367,222.856364,-13.26602936,0.152504981,14.89117501,17.00092888,0.090390623,54.81860929,0.000193526,-1.087278605,59.37898685,48.82425583,218.5794959,-9.145413399,1.163473725,1.628329873,1.178339839,5.282861233,0.000462506,117.3747734,92.37968285,7.25E-05,243,27.72192192,-0.028822007,0.166424096,-0.012529276,17.6757412,2.573567152,0.290380955,0.002018645,2.933701754,5.336173058,2.38016963,54,0.027694421,0.003512204,0.701305025,10.82235048,1.55E-07,0.084120451,0.009605515,2266.088037,0.076523648,3193.187888,6.012883798,-0.001206333,2512.176975,0.002710188,-2.988594668,1.532316923,-188.8724393,0.001715282,0.03079948,0.024067698,6.82E-06,0.379297584,3084.951361,0.000576078,0.005512458,0.013075659,3935.389413,1.944968101,0.585446656,0.001909427,-0.000230969
6.91E-05,2.447727577,6.145560265,33.07422631,18.78642367,19.1497745,0.005594085,0.032577477,0.285206336,0.01759783,0.019998648,0.052793489,81.57141951,20.18390509,19.66113811,0.002604949,0.200827112,-37.53845596,-6.322765827,17.69447899,0.748688638,70.13668823,225.3198272,-59.96806335,-12.98588276,-2.476669788,33.25662465,188.8639812,1.684178601,21.24610507,0.004560424,0.012826137,0.127803206,0.00490978,0.011044184,41.57678337,30.47868761,3.560548306,0.151602909,91.87532518,-11.1988039,0.158854082,22.36503007,23.70237767,0.016030837,24.49275385,7.37E-05,-20.33415604,49.18837934,36.31968192,60.04158242,-22.32260323,1.106470704,1.376614928,1.037856936,6.753513813,3.24E-05,44.93176796,31.68638811,-2.59E-05,297,14.89597988,0.485766172,0.65517813,-0.182080835,24.7077961,3.0889256,0.315324873,0.006870068,3.591984987,5.342655182,2.662214518,82,0.000166792,0.508655422,0.002089172,11.31226291,1.56E-08,0.103894643,0.047059037,2193.139701,0.096306058,3242.193246,8.197034962,-0.002202888,3168.089711,0.002407804,-2.990262609,1.860001564,-389.5637069,0.001522879,0.028152477,0.023591368,2.09E-05,0.480997562,2943.607324,0.000522616,0.003996586,0.007493549,3040.449612,-8.296254178,0.712203503,0.002079995,-0.032074904
7.34E-05,1.245367975,3.47399497,41.14128764,20.89059959,23.58655827,0.005925536,0.073276443,0.767481096,0.039119126,0.04532101,0.117357379,34.34925316,19.35846315,20.79317655,0.004351228,0.443812437,-26.09680939,12.82884026,16.67413902,0.541002631,88.98080444,144.6625005,-21.95172119,-14.48927021,-2.478030205,37.72087411,128.1885233,0.945683013,19.86724709,0.003962775,0.052869344,0.043005392,0.03292672,0.028124381,39.65622398,31.42549632,-21.00516319,0.082815513,44.3162293,-13.55701733,0.060472161,20.09114,21.59843853,0.005638935,22.04945719,7.04E-05,-8.538383484,40.39247677,32.0116234,36.50894651,-10.60275936,0.990407109,0.9164958,1.005906343,4.52807045,6.50E-05,43.53975002,33.59584267,-0.000374317,184,23.07464409,0.135426104,0.326246738,0.103222392,24.34361267,2.06624794,0.316522837,0.007561942,3.789361477,4.649952888,2.224278927,60,1.10E-05,0.255056563,5.52E-05,13.0628317,5.04E-06,0.09701874,0.014127068,1842.293899,0.098075845,3074.277868,2.518649127,-0.001118366,2172.181063,0.001701626,-2.993019104,2.17522645,-250.7242398,0.001884805,0.02336105,0.020922091,1.01E-05,0.263266683,2922.223461,0.000481244,0.004967719,0.008865784,3272.774126,-7.335024026,0.702390432,-0.003487766,-0.003124826
0.000126846,1.403671272,7.068246365,36.14246066,21.01355978,18.89437902,0.004924204,0.027411328,0.23834857,0.016002819,0.015504379,0.048008457,95.50040442,24.69709999,22.08220346,0.002508393,0.288042156,-39.19800568,-8.671710968,17.09497643,0.695310891,63.12910843,132.6717159,-43.13433838,-8.842130661,-2.518506765,30.6310339,119.1246814,0.059009733,24.45205318,0.003787427,0.027560971,0.134286016,0.23738052,0.038147874,34.00974525,28.33286771,-5.450366974,0.161539406,117.9346367,-24.41728401,0.288892031,37.33459007,37.78137853,0.094023451,44.30031924,0.000255527,64.64411926,41.80967857,34.71263204,66.18897005,-2.092259407,1.315086126,1.367553353,1.758478999,9.954499245,9.91E-05,42.78164064,34.28652642,0.000504865,165,18.09399605,0.231785044,0.686509252,-0.372209042,22.70944405,2.579857349,0.163372338,0.001706023,4.37012434,4.889787674,1.914450765,59,0.000518387,0.06067248,1.23E-05,12.68790221,2.17E-05,0.104459012,0.016134497,2146.985835,0.084399541,2188.899137,14.26696485,-0.002737847,3464.71496,0.004333227,-2.973995917,1.998030186,-281.7872826,0.00109672,0.017632518,0.015161258,3.98E-05,0.402650505,2871.071953,0.000628191,0.006118244,0.007264494,3369.003068,4.595278398,0.349568844,0.02768284,-0.000809106
0.000102846,0.889076036,2.908943653,21.41645379,11.56456963,10.07271983,0.003515998,0.026557684,0.23094264,0.015917543,0.016491327,0.047752628,19.08163322,24.1346334,23.66324151,0.001520382,0.20855177,-62.9863205,10.48319435,13.99393559,0.778031111,67.25379181,216.4903771,-52.35116196,-15.48687649,-2.443245649,24.54491134,182.6176459,0.762612068,21.39264654,0.001871356,0.013193056,0.081465773,0.007565926,0.004739556,27.30050855,19.64230278,17.41081429,0.180152625,37.55826963,0.843902886,0.119425274,26.7018621,27.73622604,0.016279567,18.15446335,3.36E-05,0.336285919,38.36222058,27.28012914,22.51321068,-7.441251278,0.93467623,1.101996064,0.728193939,4.603176594,7.00E-05,58.57457767,40.55329935,-0.000298261,322,31.66330719,0.728097081,0.555545032,0.064125754,27.50275993,3.568738699,0.256869107,0.003631876,5.151412964,5.083511829,2.413249016,71,0.019024149,0.513952131,7.77E-05,11.72934119,2.65E-06,0.124781364,0.033293881,2225.40788,0.126372386,3949.219161,10.28207117,-0.001408317,3352.322818,0.000980685,-2.997130445,1.767003894,-498.0560076,0.001283838,0.027951367,0.018513564,0.0003037,0.407785684,3184.278016,0.000519962,0.003832835,0.007100319,3668.993803,-11.52169691,0.559298635,0.012888295,0.009645567
0.000127969,1.618587489,3.929920435,31.19630873,23.06920898,23.70103741,0.00236329,0.026891735,0.240662123,0.013712513,0.016011121,0.041137538,30.76247248,28.09569234,28.46870896,0.001560504,0.324237715,-36.75799561,9.102650642,26.04523087,0.84848547,129.7224121,151.6613988,-26.39817619,-22.00303268,-2.322010994,37.61993518,135.2393382,0.104536276,25.25361258,0.003312488,0.038076565,0.063826598,0.112094924,0.037433576,29.17398883,24.14221819,-7.9263134,0.144241646,43.63350665,6.790007114,0.084704056,21.05476902,18.14568198,0.003643926,28.86302102,0.000108281,3.964617729,35.614155,29.35211693,30.03872511,-4.997526169,0.860576093,2.140994787,1.01078403,6.188484669,6.13E-05,45.55062963,35.84328186,0.000431348,124,22.47374344,0.649940252,0.92513895,-0.010716707,33.22310257,3.047060966,0.312035471,0.004663269,5.166680336,5.085923195,2.209173203,53,0.034099616,0.877661641,4.41E-05,13.81752859,5.09E-06,0.10595941,0.04854288,1856.410894,0.110727805,2638.944873,5.512725923,-0.001475195,2169.225471,0.002428366,-2.989228395,1.713253975,-302.7898947,0.001993894,0.028241049,0.027236545,0.000184287,0.441484511,2764.743199,0.000727542,0.006372967,0.004715425,3181.179591,-3.457964895,0.698268116,-0.005088521,0.040695388
8.26E-05,3.436636469,2.958584785,41.3278599,28.15642248,28.09353898,0.002850626,0.021655006,0.189227442,0.012197851,0.012232202,0.036593552,28.17573216,27.40307427,27.17907677,0.001904086,0.207338281,-39.45867157,5.215489864,17.94224548,1.014450073,85.21993256,204.0543243,2.998246193,-22.53455353,-2.256669998,41.3278599,172.9000246,0.127877136,28.15642248,0.001098699,0.016140956,0.153959885,0.024756894,0.015441233,20.86902542,15.30700495,-0.401572257,0.186929896,29.44880295,-11.31678677,0.174947292,33.37391093,32.58347756,0.008354633,29.35210784,1.81E-05,-47.90242386,25.17656503,18.11826428,41.79609864,-26.30770874,1.034679532,1.469228983,0.700783551,4.57441473,1.88E-05,25.82950004,18.5869475,9.86E-05,355,29.62771606,0.559685349,0.13392517,-0.021264266,29.45298767,2.355519056,0.249079317,0.007498317,5.419477463,6.287312508,1.84236145,95,0.000121823,0.090745702,0.002373607,10.69740033,3.39E-07,0.07272266,0.025401531,1899.725698,0.094413262,2937.102764,6.615423195,-0.002384425,2973.44339,0.002818114,-2.987574873,2.072089672,-1522.036147,0.001029669,0.022475407,0.019107742,8.31E-06,0.394800693,2957.384274,0.00068685,0.006116109,0.006621029,3852.91575,6.983073401,0.867229462,-0.068783745,-0.012407455
0.000711018,13.81749056,5.809015274,136.5842342,23.23394006,22.41201795,0.003150081,0.025203701,0.224882362,0.013654007,0.014547434,0.040962021,84.50458705,25.07297672,23.93364798,0.002012864,0.373541352,-41.84612274,13.82731056,15.12884903,0.749173462,74.16080475,186.9561139,-39.64949036,-18.48709106,-2.649234533,25.58624199,160.4768632,1.936059102,27.58358897,0.003308882,0.025645458,0.095282994,0.082737446,0.094551966,44.08264722,34.6984159,-2.127509356,0.212638766,48.56480522,-0.32872653,0.128892124,33.4815076,32.77228088,0.003311688,40.55072231,0.000112595,1.33786273,51.18644303,40.22613324,33.64466285,-12.21306896,0.937995732,0.977826297,0.567745328,2.755988359,7.01E-05,41.16527594,30.22836541,5.89E-05,400,34.76010132,-0.020852968,0.013644645,0.030912189,28.72143364,2.981964827,0.253783911,0.001688695,4.720581055,4.377723694,2.467471361,66,5.04E-06,0.004891305,1.73E-05,11.46178268,1.57E-07,0.118679885,0.009751789,1828.364526,0.11945931,3147.405063,6.881145285,-0.001540998,3238.633557,0.003029148,-2.985152573,1.927511334,-230.4757307,0.001307748,0.018726975,0.018992171,1.26E-05,0.36023885,3499.807177,0.000548188,0.004698674,0.015849961,4734.201602,5.023761866,0.656417012,-6.75E-05,-0.001509531
0.000231733,2.297573067,3.649926186,63.53427071,18.25991636,18.68740715,0.009492767,0.062583309,0.569478693,0.030285896,0.036078778,0.090857688,63.53047508,18.32588757,18.76142396,0.002649431,0.457806784,9.030571938,1.369033217,13.37587738,0.627016246,82.30905914,101.5520953,11.19533539,-3.499667883,-1.564874172,63.53427164,93.34850739,0.015839731,19.04570437,0.005514842,0.021340294,0.106828868,0.088976867,0.141941413,43.34280723,36.87556672,-27.88490295,0.108064063,119.4675308,-11.35128212,0.094995588,18.06266748,17.66746724,0.724310577,34.72843343,0.000376882,-11.5688982,46.75381046,39.98941867,58.42509948,-13.68172264,1.182370782,1.745909214,0.782510757,3.96757555,0.000294104,76.97081941,63.67174079,0.000230595,121,26.82841682,0.252928168,0.60299921,0.03462667,19.26490593,2.902734995,0.237385139,0.001423153,3.650660276,3.870978594,2.510233641,37,0.001847777,0.118046387,0.011912631,11.36487352,2.47E-06,0.107618501,0.017962011,2378.942911,0.089786435,3256.500822,7.915670116,-0.002214736,2841.661055,0.002726662,-2.988397342,2.32328248,-525.2586965,0.001749931,0.02381878,0.022721022,1.55E-05,0.287885785,3690.315867,0.000389243,0.003489838,0.016987771,4520.764452,-1.835481359,0.597623467,0.002617021,-0.002206409
0.001418023,3.646092612,4.7085886,313.4407704,-0.562431959,-0.564767422,0.037218966,0.174850328,1.620489376,0.089268716,0.105949515,0.267806149,728.0837648,2.141506308,0.203602947,0.033047837,1.481155044,-8.852594376,12.33534145,10.4068203,0.557694316,154.2547455,,-21.05418015,-11.1512804,-1.216562986,,,1.92123492,-0.578983933,0.043523373,0.103374593,0.048944071,0.0458453,0.021056361,172.2611881,141.121414,-44.50183868,0.163610756,427.6453275,-13.0411253,0.102153078,8.213092582,6.779492682,0.926326096,133.0055284,0.000248968,-5.500840187,166.017769,137.815877,183.1345706,-18.9394989,0.835947037,1.72215414,0.715286136,3.212301254,0.000253776,180.2649737,143.0543875,-4.94E-05,174,15.7378931,0.42964536,0.602210939,0.320876509,20.21338463,1.925742388,0.155488715,0.003608404,3.408382177,3.352117777,2.001948595,59,0.001746182,0.076179748,0.007307892,6.987525033,3.07E-07,0.135668949,0.015920615,3593.706037,0.110659745,3530.844138,12.22962561,-0.0031972,1918.288006,0.002305013,-2.989933073,2.146588564,-71.40684528,0.00114928,0.018800547,0.013810011,2.50E-05,0.219559595,4227.691793,0.000236989,0.000878554,0.021011796,2636.326896,-4.460965559,0.336437583,-0.006415331,-0.000725218
6.85E-05,1.598174952,4.70010519,29.76221116,19.8671112,20.9306567,0.002569015,0.029377537,0.260496973,0.015957729,0.017846314,0.047873186,22.07042921,25.07863476,24.95668882,0.001748987,0.281625345,-33.51072693,-7.844343662,19.48970032,0.763941407,77.70272064,185.5110482,-35.07068253,-11.55641651,-2.357410669,25.21514714,159.9490713,0.279944796,21.29910857,0.004215236,0.033074255,0.070641078,0.994902611,0.017056404,29.91555751,23.02525425,13.27490711,0.099097364,28.84642018,-2.182181835,0.115242139,27.47143031,26.22783542,0.000791642,22.1951762,0.000100602,-6.578048706,43.88020715,33.98559147,17.3142728,-23.49575806,0.907038093,1.610373855,0.968227088,5.285649776,5.57E-05,30.85601449,22.98939996,-0.000111153,201,32.92782593,0.773962438,0.58533287,-0.213883072,23.79625511,1.703855395,0.211179152,0.006429303,3.683632612,6.930897713,2.225579739,81,0.036849145,8.08E-05,1.95E-06,11.68280309,7.31E-07,0.113346988,0.025183342,2384.568817,0.10763795,3545.723546,2.541572488,-0.001114256,2963.358194,0.001672866,-2.994577225,2.108482122,-236.6451563,0.00114648,0.018519202,0.016134482,7.98E-05,0.301388115,3364.722397,0.00056964,0.005040104,0.012398203,3700.245809,-7.913877021,0.713022888,0.000216345,-0.003468759
5.52E-05,1.029126287,5.113836288,25.46702319,24.48907566,24.90888963,0.006363943,0.08005301,0.777923801,0.043792349,0.048951745,0.131377046,152.737733,14.61359833,17.96626288,0.003343784,0.476916599,-29.2860508,2.755357981,14.65759754,0.491976023,73.99098206,203.0883946,-20.30043983,-13.25221443,-1.750247359,26.35159435,173.0469913,0.04932157,20.51071183,0.004607364,0.018247853,0.10293594,0.447476536,0.138298556,37.12235982,28.35739239,-0.71013695,0.111099437,42.13621976,-5.005949974,0.088174485,23.01713844,22.24452042,0.001045202,20.22672911,5.49E-05,-8.224228859,27.21581663,20.75920024,35.08042082,-11.08232212,0.886739314,0.774964869,1.259254575,6.424375534,5.06E-05,46.12183394,33.7439987,0.000237884,351,26.45338821,0.665057361,0.641179204,0.057072178,24.25041962,2.891364098,0.244511038,0.000610925,4.231135845,5.299538136,2.804666042,80,0.001474141,1.525716324,0.085387388,10.94621704,2.25E-06,0.06728751,0.017305832,3166.023065,0.092541884,3504.892887,5.000538584,-0.001897704,3172.608534,0.001925267,-2.993334845,1.591998577,-1130.50818,0.001391117,0.023155728,0.018659817,4.57E-06,0.421829134,3396.353544,0.000468887,0.003374926,0.012055692,3558.323399,-3.022081849,0.718443155,-0.005731312,-3.73E-05
3.52E-05,1.208376022,3.191134691,24.89257349,23.58097278,24.10372886,0.002718126,0.023693154,0.208204676,0.012954549,0.014623111,0.038863646,23.9560888,25.52395065,25.65813731,0.00217942,0.315190003,-48.84610367,4.216893196,15.60174847,0.963874042,62.84818649,194.092615,-34.31097031,-6.921199322,-2.810033321,29.45413109,166.3574265,0.654977049,22.14571676,0.005043043,0.0178422,0.104207225,0.004686947,0.013764133,37.04699681,27.23689922,7.265505314,0.15537855,40.91034884,-5.052757263,0.187357634,27.48507986,27.55994192,0.001137221,25.35029819,3.74E-05,-18.93936729,34.28367051,25.20749774,21.83299041,-25.96423149,1.011037588,2.122949362,1.129827499,6.877514362,2.33E-05,28.089067,19.95998403,-4.82E-05,279,12.97395515,0.034634989,0.239780277,-0.297645748,24.96858597,2.424237251,0.218246162,0.007131413,4.112202644,5.39685297,1.940020442,80,0.000224181,0.875197406,0.004187796,12.32215593,9.62E-08,0.094981062,0.021365255,1915.256455,0.100303665,3147.763497,4.035042824,-0.001690209,3129.920318,0.002480686,-2.989296777,1.872830272,-520.8412104,0.001275524,0.024109434,0.019725809,2.00E-05,0.408720464,2971.111199,0.000527845,0.004117379,0.008123521,3099.079347,-4.894495847,0.789448023,-0.002805651,-0.006382778
9.56E-05,1.098197501,5.456638336,26.23896745,18.32477596,14.67470446,0.001147405,0.0059331,0.051588278,0.002972487,0.003590993,0.00891746,29.73948119,34.67262075,33.36752732,0.001160486,0.224906044,-38.06789017,-8.073965073,15.86049175,0.662733912,69.32449341,120.9842371,12.52557087,-0.797973692,-1.854567528,18.32817184,109.3922565,0.033871034,22.96612228,0.004236123,0.019851947,0.053074963,0.024713023,0.023689659,32.86534773,27.95101616,-29.25574493,0.186094552,44.86873801,-35.8127861,0.112831235,28.46667083,25.71297331,0.484654903,12.06074421,0.000231534,14.43151283,58.47865614,49.7769915,28.62549743,-26.49425507,1.468253732,1.857972741,1.188667059,8.064736366,0.000129068,16.53084503,14.0291201,4.71E-06,308,22.76296425,0.066313989,0.325295001,-0.163730428,32.50680161,3.1526196,0.286891818,0.003305761,5.738527775,3.574184895,3.108820438,40,6.52E-07,0.013428413,1.048647238,14.5640676,6.54E-10,0.078456101,0.026510853,2048.773224,0.110618468,1710.092198,6.622907607,-0.000981532,2077.274416,0.002310515,-2.988973697,1.683710217,-271.9118695,0.001342688,0.024955247,0.021746628,9.33E-06,0.341728091,2445.043882,0.000543431,0.006048758,0.004547951,2711.686967,-2.071057955,0.76580596,0.012614342,-0.001146812
0.000106623,0.949677007,5.626605511,36.58536674,17.43798814,17.79445528,0.002285936,0.015693008,0.137219651,0.007676755,0.009229594,0.023030265,32.92740961,28.1950882,28.95770123,0.003181677,0.357843081,-21.78907776,24.25062561,16.05158615,0.739267826,88.63196564,104.5872808,-28.21573448,-26.52030754,-2.582705259,21.35511839,95.81159284,0.149961584,21.93035363,0.004762363,0.016296545,0.115177542,0.991806507,0.038137235,36.48502407,30.47704977,0.056474071,0.11613813,34.31574311,3.586777687,0.172801137,15.80820532,14.7818976,0.361609817,27.36361965,5.55E-05,18.85571289,33.98472375,28.55665507,23.91418823,9.939727783,1.262819529,2.637069464,1.296434879,5.41388464,5.67E-05,20.55932546,17.17684682,-7.35E-05,120,30.45212746,0.313064367,0.632394671,-0.135574892,25.66754341,1.905490398,0.11978171,0.002109441,4.789597511,4.112742424,1.925387383,42,0.000293362,0.000104426,3.28E-06,12.1914407,1.10E-06,0.096891426,0.022728361,1458.89727,0.088959161,2724.031768,9.635329037,-0.002322363,1809.077367,0.002474879,-2.989909495,1.854920387,-901.8266743,0.000710593,0.011367327,0.010348164,1.76E-05,0.397870511,3169.187599,0.000851976,0.008891841,0.005129348,3945.630123,-0.978845883,0.572889507,0.073190316,-0.004071118
0.002619522,44.82598125,4.19359684,149.9485467,17.125487,17.99558971,0.018112616,0.103470573,1.019407829,0.044500241,0.06886327,0.133500723,254.4768144,15.17358016,15.72979665,0.005729532,0.606024122,-25.54194641,3.065951347,16.26865768,0.825334609,109.6233749,123.7479101,-28.25013924,-10.38312244,-1.816336632,164.9469096,95.90975521,0.055061515,15.24371971,0.00676684,0.03118762,0.090944111,0.057646766,0.030245803,210.8794736,167.6934561,-7.361096382,0.097318552,50.77700777,-15.02499771,0.112480558,19.64488132,19.01525124,0.003699329,31.14744638,0.000138557,-25.30711174,72.14467377,54.07986572,33.18270687,-35.01528168,1.282560587,1.943300247,1.465840459,6.183472633,3.81E-05,46.99302733,32.31404973,-0.000100603,273,11.44780254,0.137366638,0.497168511,-0.023247391,25.44894218,3.104780912,0.207483426,0.002603379,5.377318859,5.613068581,2.638340473,70,8.03E-06,0.013738641,0.000414345,10.61390121,6.60E-07,0.1091308,0.023023121,2634.705715,0.11021325,3733.865348,1.298907322,-0.001704504,2528.491878,0.001280951,-2.995663696,2.01764679,-128.4363747,0.001329125,0.021933725,0.01942,3.01E-05,0.446315318,3366.504229,0.000464831,0.00323143,0.008050771,3060.695175,3.589681376,0.621183157,0.005260402,-0.003188593
0.00035906,2.190329915,3.459674597,90.50246496,13.80214727,14.50376565,0.003176478,0.035069406,0.311925724,0.017294103,0.01901232,0.051882308,18.12667755,25.06496677,23.36423292,0.00198206,0.291043907,-16.23583603,10.26166344,14.5144968,0.602502704,75.63676453,130.2562729,-4.985821724,-2.480664253,-2.365441561,48.96885136,116.8886355,0.044620734,21.40640089,0.030010301,0.043661274,0.115506031,0.40461877,0.069023483,88.92412834,74.17808939,8.484079361,0.119264759,25.74277251,10.94301414,0.168040037,24.6501049,22.24326863,0.990980983,31.53182551,0.000146143,-5.291488647,60.19555222,50.1321251,19.82241551,-8.475924492,0.850587606,1.452046275,0.805340528,5.565996647,5.91E-05,23.35612243,18.90512837,-0.00030366,201,18.16508484,0.041709058,0.332279086,0.021188028,21.03339958,2.509940147,0.547063589,0.002585587,3.535543442,4.174112797,1.32119751,41,0.000636964,0.026165419,0.018838068,8.419836494,1.71E-06,0.068175593,0.045570984,1968.097918,0.072422655,2963.089773,8.399630911,-0.002844817,2335.492552,0.003329365,-2.984072163,1.669976473,-220.6751441,0.002706545,0.024517184,0.036398456,1.96E-05,0.411756635,4529.111617,0.000479923,0.004041479,0.010366147,4924.487503,-9.092402564,0.574343622,-0.000240324,-0.004437154
4.39E-05,2.052630284,4.770990372,29.95769295,23.445371,23.49775843,0.002923817,0.020153846,0.176443062,0.011651748,0.011957862,0.034955244,25.59317457,27.36117681,26.98495261,0.001322077,0.167056249,-27.71279907,-19.34399033,8.078701973,0.654296517,67.64777374,224.802675,-40.9768486,-16.23962212,-2.669766665,19.56133519,188.5764642,0.176046646,23.37239938,0.002435479,0.014413671,0.094802454,0.006318813,0.008460617,29.3168316,20.89487468,7.741757393,0.368786663,42.67663741,-15.26456738,0.152959675,28.33725312,26.55513711,0.002845027,17.18815895,3.36E-05,-5.947534084,34.96457715,24.88770814,28.97437032,-10.13825607,0.83386004,1.044975042,0.764338136,6.77038908,3.68E-05,32.22910859,22.89734277,-0.000178297,357,17.86772346,0.58346194,0.914073527,-0.278725028,27.66638184,1.937468052,0.298283368,0.003234576,4.999190807,5.792170048,3.744698524,108,0.000123078,0.357686249,0.008863222,11.71409628,6.75E-07,0.091375023,0.017047005,2332.052143,0.076485112,3414.600478,7.587729071,-0.001510507,3210.829427,0.002165518,-2.992840565,1.848038435,-516.7317916,0.001382099,0.034859743,0.021861594,7.31E-05,0.381758541,3009.727929,0.000662316,0.005612443,0.007192504,3719.395352,2.707389058,0.715644181,0.005877055,0.011431591
0.000100688,4.68035742,3.963263035,38.31120764,25.00053948,23.93014894,0.002536976,0.017335754,0.152028321,0.009888029,0.010623489,0.029664088,52.10896705,25.1735824,24.40727359,0.002838906,0.250941621,-10.20530891,-0.018101109,16.07063866,0.902599633,70.60978699,245.1458303,-11.95507526,-18.32061577,-1.705874085,29.71139737,202.4136353,0.067639207,26.33956601,0.004618141,0.023933598,0.092460915,0.002579422,0.000900469,30.38408395,21.88228819,2.193594694,0.241779193,50.85633958,-3.624307156,0.160761237,27.05798734,27.4862287,0.491519004,19.44692257,0.001486911,-2.374883652,83.23606772,63.19704072,36.17991931,6.763305664,1.0484761,1.121038079,1.113357663,5.929824829,3.07E-05,35.29138306,24.40894136,0.001597049,281,33.79091644,0.696369529,0.700786293,-0.184054494,28.63145256,2.523002625,0.213042706,0.004734959,5.522966862,5.670180321,2.667364359,99,0.008785293,0.281868463,8.35E-06,10.8447994,9.85E-05,0.068950719,0.030791059,2728.412236,0.077746186,3238.01134,5.534026824,-0.001545317,2423.353622,0.002327406,-2.991483759,1.807418108,-228.8391319,0.001009236,0.024951557,0.018787649,4.89E-05,0.441241115,2977.930604,0.000627985,0.005379894,0.005305708,3534.977264,2.710688217,0.797520161,-0.000613778,0.004184328
8.96E-05,1.055891694,4.120682716,35.74763126,24.04738351,24.26555174,0.004365301,0.024872686,0.225752794,0.013303334,0.014645679,0.039910002,47.27267264,23.13330531,23.00959606,0.001781812,0.226045465,-1.517686009,16.16867447,28.90180969,0.693817198,77.48516083,123.9442861,-13.90333271,-0.149307862,-2.019653559,31.5174322,111.9582112,0.109524438,21.809807,0.003490076,0.016545918,0.045722444,0.008636299,0.016731029,38.25998071,31.61964478,-9.10302639,0.079694882,88.78117128,4.508563519,0.043515261,25.48694263,23.90408719,0.093197465,25.28346104,,,,,,,,,,,,,,2.69E-05,190,27.99591064,0.162547022,0.569245338,-0.294564545,25.05713844,1.810554624,0.198583394,0.002343341,4.678785801,4.296804428,2.592773676,59,0.001429247,0.025794552,0.006871803,12.76252817,3.69E-08,0.108394245,0.018759783,1992.955545,0.10737581,2685.208195,4.613622353,-0.001079277,1915.693597,0.001909385,-2.993497778,1.961007953,,0.001293035,0.019779257,0.017863208,4.26E-05,0.32662648,2603.583438,0.000613276,0.006985648,0.008966986,3278.846739,2.438865669,0.707563698,0.00812945,-0.000493523
0.000100105,0.852956225,4.540346146,17.7555532,23.87709827,23.07968835,0.002208995,0.018262778,0.158621785,0.009143343,0.011118785,0.027430028,16.52978754,27.60993159,27.61542225,0.000904813,0.159515208,-45.37834549,1.648852706,17.41219521,0.698432744,72.6175766,105.2858721,-15.25387096,12.56339264,-2.598422766,16.27061599,96.45459164,0.016334447,25.56861881,0.003753364,0.016092709,0.117396601,0.018573955,0.021991709,23.99456094,20.45534749,-14.70198441,0.119109638,21.26713329,-12.25836086,0.12640141,26.66145865,26.11477711,0.012668019,15.67945392,7.76E-05,31.7380867,22.06100091,18.81557824,9.361620221,3.360875607,0.912212789,1.802083492,1.225774288,6.477283478,5.99E-05,17.36325921,14.54633468,8.59E-05,117,14.27780151,0.174307048,0.745514333,0.432440758,23.32484436,2.072268486,0.12084388,0.003695701,3.877570391,6.203081131,2.726212025,40,0.000372085,0.07492411,7.79E-05,13.70043988,1.26E-06,0.093888049,0.030250302,1800.394468,0.107020902,2376.519298,8.148088696,-0.002169566,1810.824344,0.003422368,-2.983660109,2.104742527,-636.9364775,0.000826242,0.014394343,0.011696431,3.93E-05,0.350733101,2750.381115,0.000614618,0.005208013,0.005928156,3092.432515,-4.587258475,0.600298166,0.001239798,0.005854687
0.001861532,31.64410666,3.577198744,94.34466337,20.72111418,20.74064994,0.003952457,0.041852925,0.365781914,0.024612207,0.022520392,0.07383662,67.56294204,26.08863762,25.82283263,0.002234726,0.222021647,-14.74595642,14.55897522,16.12109184,0.925544679,57.55042267,226.0752216,-24.57709312,2.85069108,-2.040747881,227.5025421,199.7215056,0.490671174,21.61350891,0.001970146,0.014542726,0.118322551,0.003766917,0.017527852,96.78712105,66.79543778,-12.14374828,0.13684392,70.13669277,-12.14262486,0.153396443,29.96938496,28.92299991,0.972383678,35.34700971,6.32E-05,-12.92414188,60.03256222,41.41700326,62.36565623,-12.15911579,0.97535187,1.246118546,1.399890423,6.905532837,3.55E-05,44.82078414,30.37629866,0.002435212,316,24.98839188,0.665843368,0.29524228,0.066867605,23.03262329,2.952090979,0.466659307,0.005638491,4.410881996,4.87019968,2.844403982,97,0.000874767,0.284406882,0.000278132,7.931480821,0.00010612,0.108391675,0.033951223,2455.832966,0.089777478,3112.231228,6.121929347,-0.001861689,3151.591097,0.002012807,-2.992756375,1.578119874,-377.7293537,0.001545902,0.035904255,0.030535761,4.63E-05,0.5196594,3581.353797,0.000566241,0.004292721,0.021666052,3873.377777,1.323840591,0.526503801,-0.002015604,0.001734659
0.000139006,1.262433068,2.512488127,31.39693758,24.17403653,24.51142382,0.003325507,0.027119368,0.245229905,0.008644726,0.015849703,0.025934178,31.33396452,26.31311081,25.66141796,0.001294297,0.322116924,-14.53713131,-4.312908649,12.30556774,0.730697095,65.19992828,120.8448825,-6.479121208,-1.701638222,-2.562547922,105.0466474,108.6872156,0.645770239,20.74348574,0.002998035,0.021584639,0.086143062,0.011228384,0.041751128,32.16269006,26.57777797,-4.598223209,0.230735108,30.35581368,-5.109051228,0.228292897,27.17289107,24.92252749,0.026954418,83.62328441,0.000152393,4.957802296,36.89779859,30.82549047,61.51072549,-8.846224785,1.179784894,1.800117135,0.849168658,4.656736851,0.000151057,46.00075476,37.32045816,0.003134929,224,12.38732052,0.13566792,0.353741914,-0.163333133,29.54558563,2.568205595,0.36384064,0.004670388,5.657336235,4.174983501,2.496771812,52,6.96E-06,0.002390417,0.416307142,13.51218938,0.00024423,0.081533165,0.020270728,1670.236162,0.090497564,2512.57428,9.329019847,-0.001746128,2199.97719,0.003562937,-2.981385302,2.001151562,-310.0284663,0.002010583,0.034064155,0.031568386,1.25E-05,0.328071356,2789.425524,0.0005142,0.005172277,0.004445309,3045.353795,2.786758041,0.550391912,0.004090248,-0.002262701
